Node ID,X,Y,Z,R, Theta(Deg.),Theta(turn.), 
1000001,54.2,-4.14619780738e-18,0.0,54.2,0.0,0.0,
1000002,53.3315718944,7.02176169486,0.546317502802,53.791836723,7.50055658374,0.0208348793993,
1000003,51.9143313703,13.9500251291,1.12382374725,53.7559392322,15.0407920921,0.0417799780335,
1000004,49.812092717,20.6973173215,1.73596551317,53.9409262541,22.5632699068,0.0626757497412,
1000005,46.897181214,27.1302179442,2.38247311848,54.1792795404,30.0495632519,0.0834710090331,
1000006,43.0983535741,33.0794934277,3.05674528929,54.3297429244,37.5074995251,0.104187498681,
1000007,38.4475929186,38.3874617207,3.74585596283,54.330604806,44.9551602693,0.124875445193,
1000008,33.080711175,42.9717611738,4.43476081219,54.23011811,52.4100448652,0.145583457959,
1000009,27.1637084977,46.8242716684,5.11100621326,54.1329795654,59.8811113275,0.166336420354,
1000010,20.8220305106,49.9338396563,5.76468022407,54.1012504237,67.3642356696,0.18712287686,
1000011,14.1522682933,52.2664115679,6.38630828522,54.1485408485,74.8492187585,0.207914496551,
1000012,7.24287151127,53.7609401338,6.96509948643,54.2466392673,82.3271015884,0.228686393301,
1000013,0.193107739217,54.3297426558,7.48763972827,54.3300858425,89.7963507406,0.249434307613,
1000014,-6.87022060479,53.890762532,7.94094690197,54.3269198229,97.2651175022,0.270180881951,
1000015,-13.8076004873,52.4697406808,8.32724770156,54.2560919928,104.743332025,0.29095370007,
1000016,-20.4957706163,50.1325527326,8.65504002331,54.1604048788,112.236294065,0.311767483515,
1000017,-26.8266036697,46.9470157137,8.9339515409,54.0711471016,119.744639835,0.332623999541,
1000018,-32.6994279957,42.9773962692,9.17393724834,54.0028627142,127.265756123,0.35351598923,
1000019,-38.013368482,38.2847597876,9.38490757065,53.9512651876,134.796200625,0.374433890626,
1000020,-42.6702050286,32.9385631013,9.57323031887,53.9045020046,142.334244835,0.395372902321,
1000021,-46.6062826548,27.0402815984,9.7306180547,53.8824870605,149.878321686,0.41632867135,
1000022,-49.7736369157,20.6949204394,9.845041617,53.9044957662,157.423398822,0.437287218949,
1000023,-52.1258070944,14.0037402554,9.90450348388,53.9741095933,164.962397253,0.458228881258,
1000024,-53.6144532878,7.06911795929,9.89687311338,54.0784802862,172.488822093,0.479135616926,
1000025,-54.1899885507,0.000788696768403,9.81002049515,54.1899885564,179.999166101,0.499997683614,
1000026,-53.419670991,-9.86809877617,9.56168179881,54.3234813156,190.4661381,0.529072605834,
1000027,-50.9094443708,-19.4435219394,9.26978184184,54.4960739096,200.903040429,0.558064001191,
1000028,-46.7801324591,-28.4426054391,9.06473805643,54.748174372,211.299856102,0.586944044729,
1000029,-41.1385872252,-36.5807090865,9.07602569221,55.0502646329,221.643711107,0.615676975298,
1000030,-34.1173426861,-43.5532267526,9.42524586343,55.3251898553,231.926689509,0.644240804192,
1000031,-25.9850291277,-49.1584204827,10.1455384125,55.6037053003,242.13917176,0.672608810444,
1000032,-17.0522726194,-53.2998170723,11.2162355889,55.9611517164,252.258906006,0.700719183351,
1000033,-7.59713522515,-55.8928542683,12.6197736009,56.4068047481,262.25961029,0.728498917473,
1000034,2.10924900087,-56.8433454154,14.3406864627,56.8824652187,272.125062217,0.755902950602,
1000035,11.7824776299,-56.1169490979,16.3384676782,57.340550705,281.857743468,0.782938176299,
1000036,21.1685162924,-53.8301129727,18.5278563751,57.842779538,291.467071374,0.809630753815,
1000037,30.0614212443,-50.1194887254,20.8272299694,58.4435813184,300.95512136,0.835986448223,
1000038,38.2818006931,-45.1080009335,23.163284629,59.1627248571,310.320262766,0.862000729905,
1000039,45.6572409434,-38.9080804225,25.467646269,59.9868516654,319.563105624,0.887675293399,
1000040,52.0404480592,-31.6673723251,27.7002174177,60.918229654,328.678876925,0.912996880348,
1000041,57.3198942883,-23.5639553631,29.8509545311,61.9744324183,337.652652719,0.937924035331,
1000042,61.3908854722,-14.7695041907,31.9118554855,63.1425298281,346.472774235,0.962424372876,
1000043,64.1504565259,-5.45855723595,33.8733165335,64.3822717802,355.13642202,0.986490061167,
1000044,65.5055373792,4.17908239831,35.7230950002,65.6387092883,3.65037415602,1.01013992821,
1000045,65.4442995879,13.9334647666,37.4584045193,66.9111185749,12.0191383629,1.03338649545,
1000046,64.0333228422,23.6040634707,39.0911896453,68.2452800312,20.2349741048,1.0562082614,
1000047,61.3304083742,33.0112065034,40.6344468091,69.6502602016,28.2914416729,1.07858733798,
1000048,57.3811525565,41.979788057,42.0993907838,71.0978148329,36.1890312358,1.10052508677,
1000049,52.2288819077,50.3270498338,43.4942850008,72.5304629125,43.937609352,1.12204891487,
1000050,45.9432813058,57.8689810423,44.8255771142,73.889133599,51.5532727606,1.14320353545,
1000051,38.6844200918,64.4906064753,46.1091130855,75.2032092492,59.0427398102,1.16400761058,
1000052,30.62870622,70.1230388972,47.3659581558,76.5203125248,66.4050062078,1.18445835058,
1000053,21.934100594,74.7102652512,48.6173110529,77.8635248545,73.638349434,1.20455097065,
1000054,12.7458957598,78.1998652961,49.883354533,79.2317915426,80.74269206,1.22428525572,
1000055,3.20450083318,80.5399255522,51.182499049,80.6036502495,87.7215327919,1.24367092442,
1000056,-6.54624266267,81.6856956955,52.5298972711,81.9475818695,94.5818574263,1.26272738174,
1000057,-16.3569924729,81.6496167913,53.9310479753,83.2719107798,101.328195868,1.28146721074,
1000058,-26.0889635629,80.4714945164,55.3873770656,84.5948902091,107.962761879,1.29989656078,
1000059,-35.6114152591,78.1798389862,56.9010033568,85.9084403343,114.489567555,1.31802657654,
1000060,-44.7912904416,74.7940634015,58.4736861297,87.1803396388,120.915771357,1.33587714266,
1000061,-53.4870570343,70.3306626464,60.1058198255,88.358742513,127.253292307,1.35348136752,
1000062,-61.5437125833,64.8140747571,61.794745093,89.3783690003,133.517415258,1.37088170905,
1000063,-68.8036121733,58.2977901573,63.5334589824,90.1807595073,139.725156374,1.38812543437,
1000064,-75.1756364953,50.9196172992,65.313170784,90.7974875663,145.888564456,1.40524601238,
1000065,-80.6131709441,42.8352841823,67.128285869,91.2871562743,152.015239361,1.42226455378,
1000066,-85.0725544952,34.1795167599,68.9759945057,91.6819442109,158.111266849,1.43919796347,
1000067,-88.503176418,25.0733263489,70.8547814756,91.9863246916,164.182348388,1.45606207886,
1000068,-90.8424396857,15.6337000865,72.7630120755,92.1778792685,170.235227719,1.47287563255,
1000069,-92.0150354284,5.98546347038,74.6972073673,92.2095034031,176.278224348,1.4896617343,
1000070,-91.93981456,-3.72920839958,76.6506495774,92.0154144511,182.322724288,1.50645201191,
1000071,-90.6034642013,-13.3497075526,78.6146563714,91.5816707481,188.381774222,1.52328270617,
1000072,-88.0871982571,-22.7302378014,80.5855208712,90.9726233946,194.469109562,1.54019197101,
1000073,-84.4746490054,-31.7445473577,82.5637079397,90.2423548647,200.595610554,1.55721002932,
1000074,-79.8386245437,-40.2753338383,84.5522747612,89.4220805216,206.76908402,1.57435856672,
1000075,-74.239890732,-48.203678139,86.5556551669,88.516416342,212.995510186,1.59165419496,
1000076,-67.7314085279,-55.3979639855,88.5781439526,87.5013035041,219.279958844,1.60911099679,
1000077,-60.367197363,-61.7052984314,90.6222250003,86.3234752079,225.628024133,1.62674451148,
1000078,-52.2348795598,-66.9786360081,92.6834634218,84.9389211382,232.050267036,1.6445840751,
1000079,-43.4918338888,-71.1623598396,94.7472067651,83.400366144,238.568250726,1.66268958535,
1000080,-34.2979317911,-74.2388569506,96.8015457441,81.7787014233,245.20333012,1.68112036145,
1000081,-24.7993007573,-76.1995859265,98.8387246532,80.1335273991,251.972422609,1.69992339614,
1000082,-15.1315784048,-77.0328335825,100.85368502,78.5049177744,258.886867116,1.71913018643,
1000083,-5.42806693474,-76.7153066728,102.842437821,76.9071010281,265.952725909,1.73875757197,
1000084,4.16903206207,-75.209115708,104.800412809,75.3245770908,273.172803295,1.75881334249,
1000085,13.5080206956,-72.5101284305,106.724090735,73.7576121368,280.552750405,1.77931319557,
1000086,22.4484091446,-68.6761283008,108.615616949,72.251931957,288.101198779,1.80028110772,
1000087,30.8593119097,-63.7787685507,110.481087094,70.8521591018,295.819985576,1.82172218216,
1000088,38.6151269931,-57.8935348035,112.329656072,69.5901530731,303.703382994,1.84362050832,
1000089,45.5881026478,-51.0975528053,114.172397003,68.4779892061,311.738634724,1.86594065201,
1000090,51.6434232808,-43.4743400314,116.020189817,67.5060101718,319.908738888,1.8886353858,
1000091,56.6776527682,-35.1420057267,117.87123081,66.6882065272,328.199728263,1.91166591184,
1000092,60.6329944152,-26.2450538222,119.715556359,66.0693791547,336.594576742,1.93498493539,
1000093,63.4717895923,-16.9284531575,121.545332118,65.6904909432,345.06635575,1.95851765486,
1000094,65.1692023041,-7.33397961402,123.354540283,65.5805778103,353.579091098,1.98216414194,
1000095,65.7083706499,2.39930691603,125.138193253,65.7521607793,2.09119646197,2.00580887906,
1000096,65.0828643886,12.1324532584,126.894502673,66.20404564,10.5596153219,2.02933226478,
1000097,63.300410405,21.7256531005,128.627400883,66.9249277929,18.9429916186,2.05261942116,
1000098,60.3755633742,31.0378518032,130.340737197,67.886352806,27.2067762059,2.07557437835,
1000099,56.3329789494,39.9251969746,132.036794502,69.0465485797,35.3265645418,2.09812934595,
1000100,51.2140035438,48.2425392578,133.715674219,70.3577767772,43.2886824024,2.12024634001,
1000101,45.0879485209,55.8527317301,135.375938188,71.7805735805,51.0872807081,2.14190911308,
1000102,38.0739338261,62.6574067979,137.022095087,73.3183132896,58.714934894,2.16309704137,
1000103,30.2958891458,68.5754702066,138.661608546,74.9695672469,66.1646851859,2.18379079218,
1000104,21.8670556299,73.5231864507,140.300753075,76.7061084125,73.4366201123,2.20399061142,
1000105,12.9014871562,77.4120494502,141.943424392,78.4797666339,80.5380530451,2.22371681401,
1000106,3.52254435882,80.1539095485,143.590514974,80.2312752901,87.4836269018,2.24301007473,
1000107,-6.1295050022,81.6756108403,145.239512088,81.9052882158,94.2918279741,2.26192174437,
1000108,-15.8964016686,81.9854999705,146.889484984,83.5123810666,100.973084657,2.28048079071,
1000109,-25.6307187114,81.1335080084,148.543410341,85.0857206787,107.531739852,2.29869927737,
1000110,-35.1984896674,79.1544223783,150.204943837,86.6276875883,113.973819242,2.31659394234,
1000111,-44.4667851909,76.0692137786,151.877078264,88.1125432053,120.308716569,2.33419087936,
1000112,-53.2940661023,71.8917713426,153.560965038,89.4912524691,126.549898235,2.3515274951,
1000113,-61.5245894274,66.639617058,155.254696581,90.6979253668,132.71454097,2.36865150269,
1000114,-68.993353046,60.3528966554,156.952350841,91.6654509574,138.821736368,2.38561593436,
1000115,-75.5928053474,53.1572994738,158.647806369,92.4119619294,144.884890844,2.40245803012,
1000116,-81.271909288,45.213592432,160.339271969,93.0021084703,150.911719956,2.4191992221,
1000117,-85.9859455857,36.6608792415,162.027607521,93.4751459214,156.908589372,2.4358571927,
1000118,-89.684458714,27.6222118977,163.71477326,93.8418282268,162.881518577,2.45244866272,
1000119,-92.3047245884,18.2146534092,165.402480778,94.084726604,168.837141813,2.46899206059,
1000120,-93.769941622,8.56024582279,167.09099642,94.1598627885,174.783933604,2.48551092668,
1000121,-93.9926790135,-1.20166856079,168.777690219,94.0003601879,180.732469665,2.50203463796,
1000122,-92.9244056012,-10.9090527173,170.456589801,93.5625597529,186.695708493,2.51859919026,
1000123,-90.6364886892,-20.4058564697,172.123356202,92.9051777899,192.687992529,2.53524442369,
1000124,-87.2213077528,-29.5610237285,173.777987176,92.0945744872,198.722534666,2.55200704074,
1000125,-82.7627310594,-38.2579075795,175.423214092,91.1775035016,204.809216707,2.56891449085,
1000126,-77.3319442521,-46.384242627,177.063469715,90.1760919862,210.955625516,2.58598784866,
1000127,-70.9893601599,-53.8204222143,178.703639733,89.0849431904,217.167502576,2.60324306271,
1000128,-63.7909856453,-60.4297213385,180.347904679,87.8694547078,223.450022695,2.62069450748,
1000129,-55.8054955177,-66.0601777098,181.997800036,86.4765887916,229.809960704,2.63836100196,
1000130,-47.1660318075,-70.6248662239,183.648760422,84.9264757635,236.263460111,2.6562873892,
1000131,-38.0302377425,-74.093670002,185.296739683,83.2836773751,242.829820861,2.67452728017,
1000132,-28.545308165,-76.4492184585,186.941155033,81.6046421544,249.524914035,2.69312476121,
1000133,-18.8490437964,-77.6744659923,188.583966251,79.9287752891,256.359859075,2.71211071965,
1000134,-9.07645587274,-77.7438556365,190.228638579,78.2718924036,263.340965728,2.73150268258,
1000135,0.629819776853,-76.6183576661,191.879015249,76.620946251,270.47097332,2.75130825922,
1000136,10.1129668818,-74.2690949756,193.537132314,74.954456623,277.754079994,2.77153911109,
1000137,19.225250307,-70.747379936,195.202387099,73.313041249,285.202724559,2.79222979044,
1000138,27.8347867466,-66.1342278699,196.876627675,71.7531284974,292.825408782,2.81340391328,
1000139,35.821504608,-60.5152133495,198.564952672,70.3226225273,300.623077646,2.83506410457,
1000140,43.0682374331,-53.9753872428,200.274758432,69.0522664624,308.587194079,2.85718665022,
1000141,49.4523700512,-46.5990379647,202.01490119,67.9485632145,316.701545301,2.87972651473,
1000142,54.8573006628,-38.4851039157,203.79047777,67.0106458663,324.948444955,2.90263456932,
1000143,59.208421145,-29.7668659007,205.597424369,66.2699286255,333.309166455,2.92585879571,
1000144,62.455834136,-20.5855513412,207.43200486,65.7609013141,341.757690419,2.94932691783,
1000145,64.5652050026,-11.0828356002,209.291810017,65.5095026845,350.259909119,2.972944192,
1000146,65.5134502836,-1.39963140003,211.1751599,65.5283994625,358.776117355,2.99660032599,
1000147,65.2885436057,8.32285843611,213.081393607,65.8168967568,7.26477282711,3.02017992452,
1000148,63.8983254541,17.9424555977,215.015973898,66.3696294153,15.6845805114,3.0435682792,
1000149,61.3599543483,27.3171665285,216.98617637,67.1660002142,23.998406121,3.06666223922,
1000150,57.6974204222,36.3031035038,218.997501993,68.1682304845,32.1780220898,3.08938339469,
1000151,52.9476057307,44.7538453762,221.052461839,69.3278849278,40.2060910743,3.11168358632,
1000152,47.1679832608,52.5251900154,223.149718593,70.5954264174,48.075941778,3.13354428272,
1000153,40.4623659052,59.5018443306,225.286079966,71.9560458432,55.7835658298,3.15495434953,
1000154,32.9625094821,65.6039238099,227.460810529,73.4193561032,63.3228861215,3.17589690589,
1000155,24.788344192,70.751400062,229.67333885,74.9681440247,70.6916642692,3.19636573408,
1000156,16.0548592448,74.8589911,231.921619165,76.5612634031,77.8952567845,3.21637571329,
1000157,6.88238984785,77.8378628886,234.200539328,78.1415394594,84.9470728141,3.23596409115,
1000158,-2.59324644501,79.6033918101,236.500165863,79.6456208137,91.8658695927,3.25518297109,
1000159,-12.2165023728,80.12753244,238.80714155,81.0534662131,98.668742534,3.27407984037,
1000160,-21.8324303496,79.4630326961,241.110841409,82.407697336,105.362908142,3.29267474484,
1000161,-31.3034118065,77.6567110177,243.403551481,83.7285396793,111.954358317,3.31098432866,
1000162,-40.4977455645,74.739842968,245.678047756,85.0065381173,118.451026664,3.32903062962,
1000163,-49.2782147099,70.7330220005,247.925487714,86.2061647814,124.864118643,3.34684477401,
1000164,-57.4955933659,65.6544096798,250.133997165,87.2710992649,131.209633854,3.36447120515,
1000165,-64.9853913781,59.5344432546,252.287045366,88.133143744,137.506564941,3.38196268039,
1000166,-71.6175245432,52.4722059851,254.369992039,88.7828937501,143.77078396,3.39936328878,
1000167,-77.3309931584,44.6278039037,256.378294643,89.2845080858,150.010706919,3.41669640811,
1000168,-82.0789649906,36.1461426441,258.311400534,89.6855625057,156.232145479,3.43397818189,
1000169,-85.8131951829,27.156195871,260.170008352,90.0075743573,162.439654242,3.45122126178,
1000170,-88.4768543685,17.7784491647,261.954488178,90.245371148,168.63834632,3.46843985089,
1000171,-90.0010539055,8.13659524636,263.663264639,90.3681021506,174.834186381,3.48565051773,
1000172,-90.3075948091,-1.63314986424,265.292103635,90.32236079,181.036041277,3.50287789243,
1000173,-89.3545193692,-11.3754108803,266.835362923,90.0756909737,187.255098643,3.52015305179,
1000174,-87.2013533397,-20.9384051971,268.292355083,89.6799466797,193.501995729,3.53750554369,
1000175,-83.9228592262,-30.1895172542,269.666210315,89.1877416058,199.785148212,3.55495874503,
1000176,-79.5866470772,-39.0064490669,270.961592046,88.6314699291,206.110073914,3.57252798309,
1000177,-74.2507996891,-47.2679423945,272.18350421,88.0195411979,212.480766356,3.59022435099,
1000178,-67.9669049835,-54.8437401418,273.336269978,87.3346208887,218.900695105,3.6080574864,
1000179,-60.7875194379,-61.5869859094,274.422824635,86.5336891206,225.374305113,3.62603973642,
1000180,-52.7938493654,-67.3532349167,275.445304895,85.5783195941,231.909395434,3.64419276509,
1000181,-44.133553762,-72.0726564221,276.40966328,84.5117646923,238.518860232,3.66255238953,
1000182,-34.9594964642,-75.7070690098,277.325135748,83.389008215,245.213772176,3.68114936716,
1000183,-25.4145050925,-78.2242120267,278.202691308,82.2491605811,252.00137944,3.70000383178,
1000184,-15.6357137911,-79.5883681331,279.054216852,81.1097027972,258.88537607,3.71912604464,
1000185,-5.7628425887,-79.7549814136,279.89196862,79.962912747,265.867170856,3.73851991904,
1000186,4.05132151814,-78.6714979593,280.728107253,78.7757437109,272.947938785,3.75818871885,
1000187,13.6432218991,-76.3320110809,281.574837299,77.541688268,280.133768209,3.77814935614,
1000188,22.8606933411,-72.7995150276,282.446041075,76.3045260013,287.433467518,3.79842629866,
1000189,31.5604365375,-68.1429711458,283.357517397,75.0967753703,294.851226884,3.81903118579,
1000190,39.5984754065,-62.4293216476,284.326579183,73.9287458023,302.386666095,3.83996296137,
1000191,46.8204815791,-55.7259767966,285.371541166,72.7842152203,310.036685374,3.86121301493,
1000192,53.0553523078,-48.1104222551,286.510717486,71.6204100663,317.798360482,3.88277322356,
1000193,58.1631199178,-39.7125913334,287.76013319,70.4275402736,325.675536125,3.90465426701,
1000194,62.0815102782,-30.7160301353,289.135054921,69.2646260778,333.67520421,3.92687556725,
1000195,64.765934082,-21.2993511577,290.653371561,68.1783585697,341.795692568,3.94943247936,
1000196,66.1712953753,-11.6361834779,292.335539046,67.1866139761,350.026539672,3.97229594353,
1000197,66.2449653969,-1.90606097318,294.203580127,66.272381192,358.351887934,3.99542191093,
1000198,64.9390189636,7.69414013123,296.276257444,65.3932410599,6.75704844686,4.01876957902,
1000199,62.2933725026,16.9678923405,298.550750981,64.5629431503,15.2369599651,4.04232488879,
1000200,58.3984257472,25.7387966201,301.016400255,63.8189766543,23.7852321231,4.06607008923,
1000201,53.3502866235,33.8433580679,303.664302294,63.1793159833,32.3894613953,4.0899707261,
1000202,47.2481141571,41.1218378114,306.485815106,62.636968608,41.0342959455,4.1139841554,
1000203,40.2003412471,47.4142220287,309.469168671,62.1624958232,49.706919367,4.13807477602,
1000204,32.3524547194,52.5986069379,312.585158004,61.7518807663,58.4050767979,4.16223632444,
1000205,23.867603087,56.5848213958,315.793482894,61.4125759883,67.1298750217,4.18647187506,
1000206,14.9048573189,59.2679868636,319.053832772,61.1134112823,75.8838438039,4.21078845501,
1000207,5.63693511287,60.5222890392,322.320283256,60.784229106,84.6789269113,4.23521924142,
1000208,-3.7271310002,60.2121964876,325.534554051,60.3274407824,93.5420856406,4.25983912678,
1000209,-12.9430152218,58.3087181564,328.627898529,59.7279520499,102.515250269,4.28476458408,
1000210,-21.784924397,54.9197395285,331.539233794,59.0826600693,111.636662514,4.31010184032,
1000211,-30.0455577781,50.1501962387,334.213687182,58.4617629308,120.926308746,4.33590641318,
