Node ID,X,Y,Z,R, Theta(Deg.),Theta(turn.), 
1000001,54.2,0.0,0.0,54.2,0.0,0.0,
1000002,53.3317216982,7.02180937319,0.546323467865,53.7919914687,7.50058610463,0.0208349614018,
1000003,51.9146305321,13.9501322214,1.12384300943,53.7562559362,15.0408195791,0.0417800543863,
1000004,49.8125309707,20.6974965364,1.7360093628,53.9413997277,22.563267079,0.062675741886,
1000005,46.8977329335,27.1304764602,2.38255714688,54.1798865563,30.049507729,0.0834708548027,
1000006,43.0989760071,33.0798245134,3.05688849258,54.3304382709,37.5073768392,0.104187157887,
1000007,38.4482351325,38.3878379437,3.74607803111,54.331325097,44.9549625174,0.124874895882,
1000008,33.0813309,42.9721410788,4.43507809467,54.2307971822,52.4097708854,0.145582696904,
1000009,27.1642851536,46.8246206412,5.11142706851,54.1335707865,59.8807687333,0.166335468704,
1000010,20.8225603227,49.9341373284,5.76520602904,54.101729077,67.3638391286,0.187121775357,
1000011,14.1527567467,52.2666530481,6.38693482776,54.148901599,74.8487866643,0.20791329629,
1000012,7.24332745406,53.7611359255,6.96581741644,54.2468941839,82.3266519425,0.228685144285,
1000013,0.19353773473,54.3299171825,7.48843435867,54.330261898,89.7958979316,0.24943304981,
1000014,-6.86981719458,53.8909426626,7.94179509666,54.3270474934,97.2646714389,0.270179642886,
1000015,-13.8072301206,52.4699394367,8.32810962608,54.2561899519,104.742900372,0.290952501032,
1000016,-20.4954401438,50.1327708756,8.65585798305,54.1604817404,112.235883132,0.311766342032,
1000017,-26.8263161746,46.9472440286,8.93465027802,54.0712026996,119.744255302,0.332622931395,
1000018,-32.6991803162,42.9776188092,9.1744239791,54.0028898474,127.265404024,0.353515011178,
1000019,-38.0131501924,38.2849573362,9.3850717868,53.9512515683,134.795888302,0.374433023061,
1000020,-42.6699994092,32.93871812,9.5729659892,53.9044339639,142.333980855,0.395372169041,
1000021,-46.6060774069,27.0403900939,9.72991871412,53.8823639765,149.87811237,0.416328089918,
1000022,-49.7734344351,20.6949916008,9.84402571653,53.9043361226,157.423246352,0.437286795423,
1000023,-52.1256289688,14.0037876999,9.90341470006,53.9739498771,164.962299554,0.458228609871,
1000024,-53.6143396975,7.06914811472,9.8960809571,54.0783716126,172.488774686,0.479135485239,
1000025,-54.1899905436,0.000788114338254,9.81001936453,54.1899905493,179.999166716,0.499997685324,
1000026,-53.4198995136,-9.86812006702,9.56364762306,54.3237099037,190.466116399,0.529072545553,
1000027,-50.909869427,-19.4436153144,9.27407415588,54.4965043059,200.902972694,0.55806381304,
1000028,-46.7806800199,-28.4427453792,9.07090025058,54.7487149423,211.299683537,0.586943565381,
1000029,-41.1392394339,-36.5808688637,9.08277364974,55.0508581951,221.643384313,0.615676067535,
1000030,-34.1181370663,-43.5535505617,9.43053119501,55.3259346365,231.926248683,0.644239579674,
1000031,-25.9859184339,-49.1592179651,10.1476382134,55.6048259397,242.138745645,0.672607626792,
1000032,-17.0530385292,-53.301232379,11.2144558935,55.9627331016,252.258600684,0.700718335234,
1000033,-7.59751367669,-55.8945503139,12.6144426379,56.408536312,262.259461413,0.728498503925,
1000034,2.10926657597,-56.8443150224,14.3331105008,56.8834348107,272.125043693,0.755902899146,
1000035,11.7823710567,-56.1158422043,16.3303933984,57.3394455328,281.857866522,0.782938518117,
1000036,21.1675192991,-53.8262187013,18.5204374547,57.8387905558,291.467564047,0.809632122353,
1000037,30.0590133765,-50.113043762,20.8209740235,58.436815795,300.956347107,0.835989853074,
1000038,38.278138222,-45.1000955454,23.1581912914,59.1543276857,310.322512629,0.862006979524,
1000039,45.6534372608,-38.9003354624,25.4633576663,59.9789332417,319.566380027,0.887684388964,
1000040,52.0380978107,-31.6610905895,27.6963973046,60.9129565944,328.682775353,0.913007709313,
1000041,57.320179936,-23.5595402907,29.8475147806,61.973018053,337.656528424,0.937934801178,
1000042,61.3942056108,-14.7666589235,31.9088733268,63.1450924328,346.475988984,0.962433302733,
1000043,64.1562652194,-5.45664648582,33.8709569128,64.3878976033,355.138554422,0.986495984504,
1000044,65.5124344349,4.18061226359,35.7215481378,65.6456897632,3.65132345184,1.01014256514,
1000045,65.4508071612,13.9347643736,37.4577874268,66.9177541181,12.0190664329,1.03338629565,
1000046,64.0386011013,23.6049746598,39.0914873229,68.2505476879,20.2341592567,1.05620599794,
1000047,61.3342420723,33.0115215694,40.6355460689,69.6537853021,28.2901752492,1.07858382014,
1000048,57.3838155351,41.9794409272,42.101102218,71.099759113,36.1875383831,1.10052093995,
1000049,52.2309401988,50.3262230511,43.4963556544,72.531371424,43.9360108523,1.12204447459,
1000050,45.9453136723,57.8680704027,44.8277120721,73.8896841282,51.5515994392,1.14319888733,
1000051,38.6867224356,64.4899623971,46.1110619372,75.2038412768,59.0409831666,1.16400273102,
1000052,30.631348402,70.1228805275,47.367545311,76.5212250189,66.403145787,1.18445318274,
1000053,21.9370457974,74.7107068142,48.6184304392,77.864778244,73.636361539,1.20454544872,
1000054,12.7490767797,78.2009794112,49.8839642324,79.2334029284,80.7405513423,1.22427930928,
1000055,3.20785536194,80.5418237752,51.182615284,80.605680402,87.719203868,1.24366445519,
1000056,-6.54278324584,81.6886003551,52.5295874583,81.9502009795,94.5792842648,1.26272023407,
1000057,-16.3535407234,81.6538056437,53.9304007471,83.2753401091,101.325301118,1.28145916977,
1000058,-26.0856860792,80.4771993285,55.3864816675,84.5993063209,107.95945882,1.29988738561,
1000059,-35.608503662,78.1871626486,56.8999499345,85.9138983872,114.485775895,1.31801604415,
1000060,-44.7889073993,74.8029191933,58.4725653451,87.1867131269,120.911437787,1.33586510496,
1000061,-53.4852451621,70.3407458915,60.1047169365,88.3656719695,127.248399538,1.35346777649,
1000062,-61.5423022412,64.8248696171,61.7937312648,89.3852263297,133.511995104,1.37086665307,
1000063,-68.8021301484,58.3086275551,63.5325763521,90.1866351536,139.71929477,1.38810915214,
1000064,-75.1734433681,50.9299461185,65.3124214701,90.8014647428,145.882392232,1.40522886731,
1000065,-80.6097267927,42.8448587802,67.1276431894,91.2886081474,152.008918349,1.42224699541,
1000066,-85.0675223969,34.1883434319,68.975418788,91.6805660616,158.104975885,1.43918048857,
1000067,-88.4964789837,25.0815879892,70.8542335054,91.9821333117,164.176259921,1.45604516645,
1000068,-90.8342896962,15.6416508217,72.7624707268,92.1711962873,170.229497708,1.47285971586,
1000069,-92.0059198503,5.99334245539,74.6966836697,92.2009188744,176.272970791,1.48964714109,
1000070,-91.9304192246,-3.72127839909,76.6502051367,92.0057057564,182.318027128,1.50643896425,
1000071,-90.5943533459,-13.3417482928,78.6143749183,91.571497234,188.377678319,1.52327132866,
1000072,-88.0786865754,-22.7223539151,80.5854549136,90.9624119969,194.465640716,1.54018233532,
1000073,-84.4668636413,-31.7368572351,82.5638658215,90.2323620469,200.592778565,1.55720216268,
1000074,-79.8315655117,-40.2679409018,84.5526153673,89.4124483309,206.76689166,1.57435247683,
1000075,-74.2334890609,-48.1966678964,86.5560830593,88.507229617,212.993960799,1.59164989111,
1000076,-67.7255789541,-55.3914254115,88.5785037117,87.4926514274,219.279061355,1.60910850376,
1000077,-60.3618784714,-61.6993771787,90.6222966789,86.3155230352,225.627799245,1.62674388679,
1000078,-52.2300430833,-66.9735802716,92.68300777,84.9319601498,232.050742419,1.64458539561,
1000079,-43.487441583,-71.158442397,94.746107532,83.394733046,238.569422072,1.66269283909,
1000080,-34.2939017588,-74.236279946,96.7998363621,81.7746718616,245.205136181,1.68112537828,
1000081,-24.795515389,-76.1984003368,98.8365830204,80.1312286021,251.974734015,1.69992981671,
1000082,-15.1279261448,-77.0328753787,100.851427887,78.5042549073,258.889488588,1.7191374683,
1000083,-5.42451148163,-76.716150413,102.840517974,76.9076918065,265.95541246,1.73876503461,
1000084,4.17235619431,-75.2100595781,104.799412663,75.3257035676,273.175288152,1.75882024487,
1000085,13.5108007668,-72.5104387082,106.724528042,73.7584263594,280.554829307,1.7793189703,
1000086,22.4503191008,-68.6753597401,108.61771085,72.2517948784,288.102827778,1.80028563272,
1000087,30.8601626997,-63.7768691049,110.484740671,70.8508198589,295.821273926,1.8217257609,
1000088,38.615057349,-57.8908518846,112.334461422,69.5878824652,303.704561052,1.8436237807,
1000089,45.5877605346,-51.0947584788,114.177638406,68.4756763717,311.739977676,1.86594438243,
1000090,51.6440932531,-43.4722516923,116.024875419,67.5051778395,319.910461098,1.88864016972,
1000091,56.6807838181,-35.1411326121,117.874511337,66.6904075223,328.201783294,1.91167162026,
1000092,60.6395044153,-26.2453590405,119.717041679,66.0754747762,336.596576243,1.93499048957,
1000093,63.481738181,-16.9295192583,121.545065337,65.7003782698,345.06769322,1.95852137005,
1000094,65.1816292835,-7.33530035037,123.352948581,65.5930745375,353.579158599,1.98216432944,
1000095,65.721308828,2.39798804096,125.136033583,65.7650422391,2.0896368809,2.00580454689,
1000096,65.0939720705,12.1308995036,126.892603209,66.2146805677,10.5565322302,2.02932370064,
1000097,63.3081409812,21.7232752163,128.62624928,66.9314679401,18.9389180335,2.05260810565,
1000098,60.3794293001,31.0340430215,130.340483005,67.8880498237,27.2024256017,2.07556229334,
1000099,56.3335261606,39.9196904691,132.037305187,69.0438111407,35.3225738027,2.09811826056,
1000100,51.2125918194,48.2357104493,133.716595824,70.3520669448,43.2854224928,2.1202372847,
1000101,45.0862865305,55.8456863027,135.376787101,71.7740476198,51.0847802685,2.14190216741,
1000102,38.073232214,62.6514092761,137.022512223,73.3128235406,58.7129694395,2.16309158178,
1000103,30.2966552038,68.5715003718,138.661434753,74.9662456028,66.1629235271,2.18378589869,
1000104,21.8692488732,73.5217490686,140.299990016,76.7053559563,73.4347437524,2.20398539931,
1000105,12.9047121235,77.4130582888,141.942202847,78.4812919658,80.535851745,2.22371069929,
1000106,3.52629382056,80.1566502946,143.589060275,80.2341780949,87.4810378973,2.24300288305,
1000107,-6.12560579676,81.6788491901,145.238101405,81.908225786,94.2889385575,2.26191371822,
1000108,-15.8924235883,81.9880042552,146.88833272,83.5140824608,100.970078314,2.28047243976,
1000109,-25.6264893192,81.1344677527,148.54262279,85.0853619158,107.528829423,2.29869119284,
1000110,-35.193752471,79.1534972106,150.204543092,86.6249175103,113.971204891,2.31658668025,
1000111,-44.4613511156,76.0665252735,151.877021803,88.1074798766,120.306548123,2.3341848559,
1000112,-53.2879566273,71.8878538556,153.561163795,89.4844671073,126.548249479,2.35152291522,
1000113,-61.5181617685,66.6353134524,155.255035223,90.6904031653,132.713401668,2.36864833797,
1000114,-68.9873549089,60.3491629081,156.952714127,91.6584780642,138.821024418,2.38561395672,
1000115,-75.588118816,53.1548118673,158.648130722,92.4066974347,144.884481039,2.40245689177,
1000116,-81.2692736279,45.2126153896,160.339557485,92.9993302469,150.911456557,2.41919849044,
1000117,-85.9858537396,36.6613582651,162.027898408,93.4752493079,156.908297198,2.43585638111,
1000118,-89.6871104435,27.6238702505,163.715144746,93.844850617,162.881027491,2.45244729859,
1000119,-92.3099992404,18.2171267221,165.403021785,94.0903803041,168.83628603,2.46898968342,
1000120,-93.7774280001,8.56315635094,167.091803575,94.1675827926,174.782584149,2.48550717819,
1000121,-94.0017352102,-1.19860451662,168.778853476,94.0093765287,180.730531819,2.50202925505,
1000122,-92.9343244918,-10.9059446603,170.458168474,93.5720486987,186.693110207,2.5185919728,
1000123,-90.6467881877,-20.4027010726,172.125357368,92.9145328773,192.68469928,2.53523527578,
1000124,-87.2317553301,-29.5577919594,173.780371857,92.103432094,198.718544467,2.55199595685,
1000125,-82.773273885,-38.2546127975,175.425906673,91.1856911468,204.804557894,2.56890154971,
1000126,-77.3426418153,-46.3809552328,177.066359761,90.1835752855,210.950338537,2.5859731626,
1000127,-71.0003090371,-53.817276211,178.706584987,89.0917678696,217.161636324,2.60322676757,
1000128,-63.80225035,-60.4268801595,180.350730777,87.8756792038,223.443626739,2.62067674094,
1000129,-55.8170287428,-66.0577255572,182.000307013,86.4821588737,229.803075338,2.63834187594,
1000130,-47.1776809562,-70.622704725,183.65077479,84.9311486033,236.256114993,2.65626698609,
1000131,-38.0418904696,-74.0916714895,185.298138557,83.2872211964,242.822061363,2.67450572601,
1000132,-28.5569214022,-76.4473375659,186.941873659,81.606943215,249.516813621,2.69310226006,
1000133,-18.8606200803,-77.6728369428,188.584007754,79.929922986,256.351519564,2.71208755434,
1000134,-9.08797953232,-77.7428723149,190.228086886,78.2722528598,263.332503775,2.73147917715,
1000135,0.618484343903,-76.618731799,191.878053477,76.6212280335,270.462494903,2.75128470806,
1000136,10.1021658421,-74.2716918385,193.536031684,74.9555732635,277.745631386,2.77151564274,
1000137,19.215473145,-70.7527792724,195.201378121,73.3156885186,285.194244648,2.79220623513,
1000138,27.8265046834,-66.1425924423,196.875843196,71.7576260609,292.816722845,2.81337978568,
1000139,35.8149972489,-60.5262605621,198.564401261,70.3288151868,300.613931071,2.83503869742,
1000140,43.0634358646,-53.9884340802,200.274298363,69.0594709138,308.577328966,2.85715924713,
1000141,49.4487211095,-46.6131129636,202.014209605,67.9555613583,316.690798605,2.87969666279,
1000142,54.8538381237,-38.4992345937,203.789137088,67.0159281157,324.936854757,2.90260237433,
1000143,59.2043498059,-29.7805618502,205.59515715,66.2724445003,333.297006311,2.92582501753,
1000144,62.4508940502,-20.5987909302,207.42874279,65.7603554997,341.745387394,2.94929274276,
1000145,64.5598551607,-11.0958653749,209.287737964,65.5064357662,350.247885153,2.97291079209,
1000146,65.5089126878,-1.41270792341,211.170756875,65.524143529,358.76460081,2.99656833558,
1000147,65.2865810985,8.30972919686,213.077408391,65.8132909894,7.25365057179,3.02014902937,
1000148,63.9003157798,17.9296400537,215.013078196,66.3680823078,15.6734642576,3.04353740072,
1000149,61.3664819089,27.3052107854,216.984807441,67.1671023486,23.9868244167,3.06663006782,
1000150,57.7082641339,36.2924692905,218.997828464,68.1717469085,32.1656037488,3.0893488993,
1000151,52.9618612242,44.744679326,221.054348779,69.3328570904,40.1927012568,3.11164639238,
1000152,47.1843064176,52.517184511,223.152701534,70.6003784768,48.0617446953,3.13350484638,
1000153,40.4794883686,59.4943848379,225.289520798,71.9595080988,55.7689523425,3.15491375651,
1000154,32.9797173533,65.5965186975,227.464150943,73.4204673231,63.3082924736,3.17585636798,
1000155,24.8053262018,70.743770931,229.676140313,74.9665614359,70.6774872464,3.19632635346,
1000156,16.0715233063,74.851033031,231.923581099,76.5569788275,77.8818136328,3.2163383712,
1000157,6.89873556181,77.8295217706,234.201511388,78.1346722741,84.9345944452,3.23592942901,
1000158,-2.57719357618,79.5944756456,236.500152815,79.6361882565,91.8545350408,3.25515148622,
1000159,-12.2006695555,80.1174706979,238.806237886,81.0411343,98.6587488405,3.27405208011,
1000160,-21.8166152269,79.4512177904,241.109131582,82.3921155714,105.354479949,3.29265133319,
1000161,-31.2873193206,77.6427934442,243.401116038,83.7096154817,111.947703902,3.31096584417,
1000162,-40.4811097308,74.7238799777,245.674987723,84.9845779184,118.446292669,3.32901747964,
1000163,-49.2609565977,70.715569436,247.92195203,86.1819795873,124.861337018,3.34683704727,
1000164,-57.4780722378,65.6365129403,250.13023208,87.2460922858,131.208720653,3.36446866848,
1000165,-64.9685967678,59.5175302897,252.283434309,88.109335361,137.507297157,3.38196471432,
1000166,-71.6029124834,52.4575718685,254.367018411,88.7624578436,143.772829384,3.39936897051,
1000167,-77.3199342972,44.6160856767,256.376420912,89.2690727006,150.013673298,3.41670464805,
1000168,-82.0724626701,36.1373645534,258.311012266,89.6760739864,156.235603912,3.43398778865,
1000169,-85.8117302117,27.1499101577,260.171381073,90.004281362,162.443187824,3.45123107729,
1000170,-88.4802872867,17.773965408,261.957750542,90.2478536291,168.641566501,3.46844879584,
1000171,-90.008633096,8.13315664651,263.668377951,90.3753410442,174.836790152,3.48565775042,
1000172,-90.3180460972,-1.63616332076,265.298837303,90.3328649011,181.03783246,3.50288286794,
1000173,-89.3664509091,-11.3782904554,266.843323232,90.08789065,187.255957063,3.52015543629,
1000174,-87.2137993969,-20.9411979314,268.301126199,89.6927007958,193.501874135,3.53750520593,
1000175,-83.9352734169,-30.1921735925,269.675389013,89.2003221396,199.784054586,3.55495570718,
1000176,-79.5987940888,-39.008916187,270.970791304,88.6434631683,206.108050469,3.57252236241,
1000177,-74.2626354404,-47.2702038792,272.192349903,88.0307400703,212.477871151,3.59021630875,
1000178,-67.9784523853,-54.8458101792,273.344395385,87.3449075958,218.896995114,3.60804720865,
1000179,-60.7987599644,-61.5888329038,274.429862254,86.542900065,225.369867689,3.62602741025,
1000180,-52.804647562,-67.3546345955,275.450908321,85.5860830138,231.904284101,3.64417856695,
1000181,-44.1437909001,-72.0732559476,276.413619464,84.5176224105,238.513154035,3.66253653899,
1000182,-34.9691793051,-75.7065592348,277.32740502,83.3926052623,245.2075855,3.68113218194,
1000183,-25.4237651833,-78.2224498274,278.203420953,82.2503464619,251.9948652,3.69998573667,
1000184,-15.6447569295,-79.5854718763,279.053754843,81.1086046802,258.878713342,3.71910753706,
1000185,-5.77186208438,-79.7513940728,279.890880558,79.9599852957,265.860539436,3.73850149843,
1000186,4.04225820553,-78.6679927722,280.727191262,78.7717775488,272.941486298,3.75817079527,
1000187,13.6342424974,-76.3293752097,281.57490351,77.5375140714,280.12757916,3.77813216433,
1000188,22.8520601673,-72.7982703208,282.447597126,76.3007523921,287.427562506,3.79840989585,
1000189,31.5524376627,-68.1433331284,283.36073056,75.0937425643,294.845572881,3.81901548022,
1000190,39.591320487,-62.4312037522,284.331259418,73.926503095,302.381202004,3.83994778334,
1000191,46.8142124015,-55.729028679,285.377119081,72.7825193317,310.031361337,3.86119822593,
1000192,53.0497722056,-48.114097528,286.516222195,71.6187455349,317.79318363,3.88275884342,
1000193,58.1578150963,-39.716326473,287.76449228,70.4252656742,325.670592908,3.90464053586,
1000194,62.0761409176,-30.7195114768,289.137575967,69.2613576,333.670653232,3.92686292564,
1000195,64.7604255036,-21.3025032388,290.653793668,68.1741105966,341.791729733,3.94942147148,
1000196,66.1659582759,-11.6390704874,292.33404654,67.1818576431,350.023326383,3.97228701773,
1000197,66.2405701543,-1.90875129542,294.200827523,66.2680652039,358.34945353,3.9954151487,
1000198,64.9367341975,7.69173554818,296.273343985,65.3906892759,6.75519171499,4.01876442143,
1000199,62.2941407784,16.9660988355,298.548731666,64.563213094,15.2352451085,4.0423201253,
1000200,58.4025704579,25.7379919787,301.016022657,63.8224448544,23.7830704626,4.06606408462,
1000201,53.3574578212,33.8437098894,303.665966455,63.1855600927,32.3862474568,4.08996179849,
1000202,47.2573771693,41.123072906,306.489518909,62.6447669175,41.0295860367,4.11397107232,
1000203,40.2103957669,47.4154901789,309.474450256,62.1699657121,49.7006073911,4.13805724275,
1000204,32.3622450076,52.5988420034,312.59129001,61.7572107696,58.397454377,4.16221515105,
1000205,23.8766847793,56.5833331797,315.79971336,61.4147349565,67.1215288713,4.18644869131,
1000206,14.9132182656,59.2646564244,319.059462123,61.1122212011,75.8754801718,4.2107652227,
1000207,5.6447444727,60.5176220398,322.324747905,60.7803069877,84.6711889948,4.23519774721,
1000208,-3.71979530237,60.2071747692,325.53751829,60.3219758527,93.5354259518,4.25982062764,
1000209,-12.9362689392,58.3041320664,328.629260144,59.7220132789,102.509885277,4.28474968133,
1000210,-21.7789350309,54.9159140348,331.539038214,59.0768958676,111.632631013,4.3100906417,
1000211,-30.0404255415,50.1471677652,334.212091582,58.4565274506,120.923519119,4.33589866422,
