Node ID,X,Y,Z,R, Theta(Deg.),Theta(turn.), 
1000001,54.1999459827,-2.93565638465e-07,2.39375780309e-07,54.1999459827,0.0,0.0,
1000002,53.3265910259,7.02111293539,0.546523781318,53.7868137864,7.50056401203,0.0208349000334,
1000003,51.9066166768,13.9487953112,1.12410260665,53.7481696941,15.0416601698,0.0417823893605,
1000004,49.8039973849,20.6960619721,1.73620549499,53.9329689213,22.5653382483,0.0626814951342,
1000005,46.8907316087,27.1297264042,2.38259437749,54.1734507445,30.0525290316,0.0834792473101,
1000006,43.0943723372,33.0805631376,3.05674269531,54.3272361218,37.5109509563,0.10419708599,
1000007,38.4452962995,38.3899440159,3.74576032363,54.3307335594,44.958723996,0.124885344433,
1000008,33.0783490519,42.9741002087,4.43457705259,54.2305307438,52.4135298727,0.145593138535,
1000009,27.1603812182,46.8250869633,5.11072628593,54.1320152686,59.8845906088,0.166346085025,
1000010,20.8178217016,49.932757909,5.7643285638,54.0986322637,67.3679089106,0.187133080307,
1000011,14.1476545538,52.264087681,6.38598104368,54.145092026,74.8532885571,0.207925801548,
1000012,7.23833769154,53.7588857338,6.96497663991,54.2439980816,82.3315578742,0.228698771873,
1000013,0.188788637812,54.3299650489,7.48798137773,54.3302930542,89.8009063945,0.249446962207,
1000014,-6.87463417879,53.8938220445,7.94185722682,54.3305130627,97.2693265689,0.270192573802,
1000015,-13.8121943138,52.4740615832,8.32854758024,54.261439815,104.746861919,0.290963505331,
1000016,-20.5001521553,50.1364490419,8.65651457195,54.1656695788,112.239024447,0.311775067909,
1000017,-26.8301320793,46.9493209426,8.93541221154,54.0748992081,119.746674005,0.332629650014,
1000018,-32.701625414,42.9777884997,9.17525974232,54.0045054513,127.26735951,0.353520443083,
1000019,-38.0143830787,38.2838417013,9.38605545472,53.9513285867,134.797652204,0.374437922788,
1000020,-42.6708699541,32.9373682685,9.57430866683,53.9042982617,142.335682028,0.395376894523,
1000021,-46.6072830305,27.0393474683,9.73178870268,53.8828835809,149.879714675,0.416332540763,
1000022,-49.7752124188,20.6943182138,9.84641443723,53.905719341,157.424632771,0.437290646587,
1000023,-52.127676784,14.0032894419,9.90613416587,53.9757982997,164.963374342,0.458231595395,
1000024,-53.6158658634,7.06861483327,9.89877587483,54.079814977,172.489546197,0.479137628325,
1000025,-54.1899633679,0.000238594116884,9.81219557024,54.1899633684,179.999747732,0.499999299255,
1000026,-53.4167921461,-9.86780164758,9.5643140464,54.3205963934,190.46638151,0.529073281971,
1000027,-50.9048578283,-19.4421678311,9.27291584855,54.4913061001,200.903430978,0.55806508605,
1000028,-46.7761827154,-28.4408987635,9.06815069725,54.7439128296,211.300477449,0.586945770691,
1000029,-41.1374492353,-36.5802253994,9.07918810477,55.0490928159,221.644121952,0.615678116535,
1000030,-34.1197146368,-43.5554143777,9.42767706078,55.3283747142,231.926152871,0.64423931353,
1000031,-25.9895684719,-49.1626242416,10.1474842859,55.6095431709,242.137060995,0.672602947209,
1000032,-17.0574683483,-53.3038338447,11.2181461141,55.9665608108,252.255092884,0.700708591345,
1000033,-7.60241335661,-55.8945936715,12.6218474329,56.4092394076,262.254536007,0.728484822241,
1000034,2.1036073305,-56.8429338366,14.3425278807,56.881845003,272.119398772,0.755887218812,
1000035,11.7764051598,-56.1165238057,16.3395686242,57.3388870011,281.851892371,0.782921923254,
1000036,21.1625078778,-53.8316359668,18.5280870514,57.8419983277,291.460980476,0.809613834656,
1000037,30.0559537558,-50.123575756,20.8268871809,58.4442743367,300.948463822,0.835967955062,
1000038,38.2765092332,-45.1136530987,23.1630133067,59.1636109023,310.312813893,0.86198003859,
1000039,45.6502892473,-38.9130759139,25.468051938,59.984801287,319.555167084,0.887653241901,
1000040,52.0294666392,-31.6696278745,27.7005001304,60.9100215766,328.671694629,0.912976929525,
1000041,57.3059042031,-23.5647450865,29.8504623874,61.9617936113,337.647058562,0.937908496005,
1000042,61.3781754396,-14.7713352599,31.9106177964,63.1306008656,346.468460308,0.962412389745,
1000043,64.1445481745,-5.46324506985,33.872060345,64.3767823614,355.131819006,0.986477275017,
1000044,65.5092552557,4.17214569736,35.7230507965,65.6419783666,3.64412510927,1.01012256975,
1000045,65.449970665,13.9256425794,37.4591589048,66.9150370343,12.0115762951,1.03336548971,
1000046,64.0351066517,23.5949819988,39.0917468532,68.2438133417,20.2273021129,1.05618695031,
1000047,61.3279575094,33.0003535712,40.6341223816,69.6429587833,28.2845351052,1.07856815307,
1000048,57.3788851529,41.9684687705,42.0981516973,71.0893018135,36.1827473338,1.10050763148,
1000049,52.2337570889,50.3194311707,43.4929179814,72.528687655,43.9306031261,1.12202945313,
1000050,45.9581102911,57.8683779421,44.825028965,73.8978826975,51.543977349,1.14317771486,
1000051,38.7040049762,64.4937899607,46.1092966026,75.2160152141,59.0311936175,1.16397553783,
1000052,30.649160189,70.1259736211,47.3664941326,76.5311910047,66.3918527963,1.18442181332,
1000053,21.9538009294,74.7102148814,48.6176876406,77.869028393,73.6244305761,1.20451230716,
1000054,12.7649861439,78.1967640093,49.8829882634,79.2318040485,80.7287060415,1.22424640567,
1000055,3.22425210308,80.5368053255,51.1806563834,80.6013201731,87.7074154401,1.24363170956,
1000056,-6.52546481862,81.6875222648,52.5259312966,81.9477454532,94.5672744939,1.26268687359,
1000057,-16.3357598458,81.6579175324,53.9250231738,83.2758821357,101.312750095,1.28142430582,
1000058,-26.0678592865,80.4856235542,55.3798855674,84.6018255517,107.946214881,1.29985059689,
1000059,-35.5903345381,78.1980715287,56.8929021815,85.9162982405,114.471733794,1.31797703832,
1000060,-44.7700140678,74.8142285288,58.4659700976,87.1867131505,120.896967402,1.33582490945,
1000061,-53.4648392451,70.3511476198,60.0992292858,88.3616036915,127.233784472,1.35342717909,
1000062,-61.5202602342,64.834539486,61.7895121287,89.3770660161,133.497479463,1.37082633184,
1000063,-68.7810003443,58.3204688485,63.5291237861,90.1781741614,139.704875439,1.38806909844,
1000064,-75.1584752547,50.9480076716,65.3090928829,90.79920643,145.867658973,1.40518794159,
1000065,-80.604616638,42.8702940902,67.1239719423,91.2960368184,151.993317735,1.42220366037,
1000066,-85.0732823177,34.2200447769,68.9711508298,91.6977362253,158.087938706,1.43913316307,
1000067,-88.5110326723,25.117288005,70.8492561792,92.0058751463,164.157341886,1.45599261635,
1000068,-90.8527730873,15.6787442508,72.7567333578,92.1957124759,170.208729363,1.47280202601,
1000069,-92.0214641503,6.03040138697,74.6899227718,92.2188462585,176.250622469,1.48958506241,
1000070,-91.9374426477,-3.68353477154,76.6417362355,92.0112046928,182.294366346,1.50637323985,
1000071,-90.5992660708,-13.3033701588,78.6038383112,91.5707741048,188.353473525,1.52320409312,
1000072,-88.0892857609,-22.6851904261,80.5730104272,90.9633999504,194.441306674,1.54011474076,
1000073,-84.4878577326,-31.7037008124,82.5501756593,90.2403609781,200.568383527,1.55713439869,
1000074,-79.8640863004,-40.2404102501,84.5385710441,89.4290942462,206.741759709,1.57428266586,
1000075,-74.2750105554,-48.1744850082,86.5427996964,88.5299847442,212.967286211,1.59157579503,
1000076,-67.7708952901,-55.3712286826,88.5670113342,87.5149542321,219.250042957,1.6090278971,
1000077,-60.4048218997,-61.674535829,90.6131786558,86.3278105737,225.595896208,1.62665526724,
1000078,-52.2701135807,-66.9426360316,92.6755343346,84.9322158701,232.016588876,1.64449052466,
1000079,-43.5275745989,-71.126022407,94.7393317135,83.3880136105,238.534276778,1.66259521327,
1000080,-34.3360330368,-74.2079384602,96.7932736004,81.766627026,245.170006819,1.68102779672,
1000081,-24.8400577915,-76.1787785493,98.8301126816,80.1263675225,251.94010474,1.69983362428,
1000082,-15.1740644716,-77.0242918324,100.845131894,78.5047372129,258.855238989,1.71904233053,
1000083,-5.4709942145,-76.7178295877,102.834440028,76.9126592593,265.9209598,1.73866933278,
1000084,4.12606031461,-75.218193831,104.793267891,75.3312754235,273.139787602,1.75872163223,
1000085,13.4652118787,-72.5216858608,106.717937463,73.7611473002,280.518415871,1.77921782186,
1000086,22.405487613,-68.6895338283,108.610136599,72.2513524629,288.06554334,1.80018206483,
1000087,30.8176359616,-63.7954532213,110.475898456,70.8490404873,295.783770078,1.82162158355,
1000088,38.5770633138,-57.9159802668,112.324202075,69.5877186304,303.667055642,1.84351959901,
1000089,45.5567869547,-51.1278811877,114.166048702,68.4797858669,311.702190489,1.86583941802,
1000090,51.6210744838,-43.512331608,116.012607793,67.5133937291,319.871858686,1.88853294079,
1000091,56.6618119826,-35.184581122,117.863081744,66.6971939881,328.161473455,1.91155964849,
1000092,60.6212614404,-26.2901406387,119.707262931,66.0765376925,336.554656895,1.93487404693,
1000093,63.4632520527,-16.9752019077,121.537115433,65.6943060007,345.025041705,1.95840289363,
1000094,65.1645315522,-7.38214192951,123.346667108,65.5813402721,353.536821215,1.9820467256,
1000095,65.7089535826,2.35001181799,125.131172645,65.7509630079,2.04825048911,2.00568958469,
1000096,65.0884192552,12.0825826495,126.888326235,66.2003861366,10.5163027179,2.02921195199,
1000097,63.3099734093,21.6756980196,128.621555223,66.9177750506,18.8998779092,2.05249966086,
1000098,60.3893556428,30.9884661104,130.334697548,67.8760584214,27.1643778665,2.07545660518,
1000099,56.3528200683,39.8778324988,132.030256986,69.0353666931,35.2849707839,2.09801380773,
1000100,51.2428310053,48.1999116488,133.708753746,70.3495501932,43.2473125093,2.12013142364,
1000101,45.1273795474,55.8174936357,135.36896768,71.777942159,51.0451212503,2.14179200347,
1000102,38.1212511427,62.628986029,137.015014674,73.3186175517,58.6718013361,2.16297722593,
1000103,30.3479564551,68.5523123151,138.654464299,74.9694470084,66.1211342258,2.18366981729,
1000104,21.9220723699,73.5033584632,140.293473649,76.7028093512,73.3930064711,2.20386946242,
1000105,12.9583438174,77.3950034331,141.9359428,78.4723214318,80.4950584822,2.22359738467,
1000106,3.58127328311,80.1412155999,143.582518449,80.2211939337,87.4413237729,2.24289256604,
1000107,-6.06881649125,81.6717339039,145.230510903,81.8969025817,94.249691807,2.26180469946,
1000108,-15.834744611,81.9946977329,146.879270456,83.5096975998,100.930354143,2.28036209484,
1000109,-25.5697018267,81.1571107064,148.532229395,85.0898717223,107.48777468,2.29857715189,
1000110,-35.1393965767,79.1908551619,150.193261128,86.6369940213,113.928320591,2.3164675572,
1000111,-44.4098416383,76.1146592499,151.865418055,88.1230695509,120.261841963,2.33406067212,
1000112,-53.2381211579,71.9413265943,153.549592015,89.4977766013,126.502233356,2.35139509266,
1000113,-61.4674746243,66.6888496936,155.243470726,90.6953863774,132.666932231,2.3685192562,
1000114,-68.934638623,60.4011220575,156.940607853,91.6530411273,138.77487893,2.3854857748,
1000115,-75.5381473156,53.2098951308,158.635121058,92.3975358962,144.838715911,2.40232976642,
1000116,-81.227170005,45.2738957347,160.325693659,92.9923587292,150.865850203,2.41907180612,
1000117,-85.9550658619,36.7295027142,162.013474217,93.4736846228,156.862472352,2.43572908987,
1000118,-89.6683976679,27.6977228181,163.700604014,93.8487367503,162.834574357,2.4523182621,
1000119,-92.3009964712,18.2944434233,165.388765423,94.096549404,168.789037032,2.4688584362,
1000120,-93.7727662555,8.64190800553,167.077970258,94.1701346775,174.734610001,2.48537391667,
1000121,-93.9942734086,-1.11939019298,168.765130861,94.000938655,180.682310736,2.5018953076,
1000122,-92.9249043574,-10.8258110775,170.443795515,93.5533860174,186.645040129,2.5184584448,
1000123,-90.6415606839,-20.3230130259,172.110007579,92.8919661847,192.637455323,2.53510404256,
1000124,-87.2360204312,-29.4811185629,173.764145835,92.0828953302,198.672508537,2.55186807927,
1000125,-82.7902556938,-38.1839141584,175.40917761,91.1714743672,204.759749786,2.56877708274,
1000126,-77.373090689,-46.3185295797,177.04968784,90.1776099993,210.90637326,2.58585103683,
1000127,-71.0425355611,-53.763939442,178.690558438,89.093226697,217.11789689,2.60310526914,
1000128,-63.8526680544,-60.381236079,180.335812459,87.8809244836,223.399417129,2.62055393647,
1000129,-55.8718391098,-66.0169015239,181.986554987,86.486378652,229.757884466,2.63821634574,
1000130,-47.2355208114,-70.5860319969,183.63792052,84.9328107352,236.20992738,2.65613868717,
1000131,-38.1024355827,-74.0602442883,185.285873757,83.2869460442,242.775134048,2.67437537236,
1000132,-28.619984984,-76.42344887,186.92997188,81.6066607433,249.469467144,2.69297074207,
1000133,-18.9256065263,-77.6592816092,188.57237277,79.9321124608,256.303959573,2.71195544326,
1000134,-9.15368614026,-77.7421372615,190.216755652,78.2791790704,263.28467318,2.73134631439,
1000135,0.553729945288,-76.6320571898,191.867159736,76.6340577419,270.414002153,2.75115000598,
1000136,10.0393240954,-74.2959931737,193.525813665,74.9712120081,277.695540522,2.77137650145,
1000137,19.1543416431,-70.7832243978,195.191760297,73.3290778609,285.14191445,2.79206087347,
1000138,27.7666987255,-66.1765705656,196.866294227,71.7657860679,292.762192178,2.81322831161,
1000139,35.7569421905,-60.5637998461,198.554210019,70.3315915263,300.557654773,2.83488237437,
1000140,43.0097093234,-54.0313073897,200.262973027,69.059519795,308.520301443,2.85700083734,
1000141,49.4037046941,-46.663940418,202.001628586,67.9577028219,316.633582169,2.87953772825,
1000142,54.8197142335,-38.5580684314,203.776283019,67.0218300989,324.878927841,2.90244146622,
1000143,59.1802839997,-29.8453248095,205.582905196,66.280083187,333.237644385,2.92566012329,
1000144,62.4353514347,-20.6674993142,207.417339577,65.767154695,341.684300197,2.9491230561,
1000145,64.551905516,-11.1671209687,209.276964432,65.5107097846,350.185287714,2.97273691032,
1000146,65.5090204163,-1.4855047389,211.160111278,65.525861156,358.700964125,2.99639156702,
1000147,65.2960225241,8.23650554736,213.066188175,65.8134528885,7.18937598109,3.01997048884,
1000148,63.9182962265,17.8571216213,215.000562638,66.365845019,15.6089910374,3.04335830844,
1000149,61.3909774038,27.234017541,216.970470472,67.1605823234,23.9228381378,3.06645232816,
1000150,57.7377396342,36.2229426983,218.981343191,68.1597253207,32.1029387662,3.08917482991,
1000151,52.9964713115,44.6779535748,221.035565386,69.3162715897,40.132107345,3.11147807596,
1000152,47.2268810145,52.4560027958,223.13154956,70.5833586596,48.0028449342,3.13334123593,
1000153,40.5328809486,59.4434676664,225.266487362,71.9474828343,55.7109886293,3.15475274619,
1000154,33.0441757303,65.5581520156,227.440035413,73.4151813006,63.2498976772,3.17569416021,
1000155,24.8784597512,70.7178934518,229.651989208,74.9663805573,70.6181965886,3.19616165719,
1000156,16.150338225,74.8350846615,231.900154722,76.5579735957,77.8216374791,3.21617121522,
1000157,6.98068704056,77.8199200385,234.179086405,78.1323873074,84.8741110742,3.23576141965,
1000158,-2.49355020147,79.5891554334,236.478382362,79.6282076604,91.7945055819,3.25498473773,
1000159,-12.1158076289,80.1219466869,238.784645985,81.032827517,98.5989530358,3.27388598065,
1000160,-21.7321560513,79.4718125705,241.087737442,82.3896571171,105.294049093,3.2924834697,
1000161,-31.2057467514,77.682865411,243.380297505,83.7163437375,111.885670948,3.31079353041,
1000162,-40.4046718933,74.7832260295,245.655157069,85.0004023884,118.381934548,3.32883870708,
1000163,-49.1907270173,70.7904849729,247.903365879,86.2033664492,124.794573963,3.34665159434,
1000164,-57.4127584071,65.7207642992,250.112654598,87.2665095439,131.140016998,3.364277825,
1000165,-64.9047269518,59.6046755122,252.265924431,88.1211718238,137.437465411,3.38177073725,
1000166,-71.5403893386,52.5466366487,254.348899496,88.7647245802,143.702603019,3.39917389728,
1000167,-77.2607477341,44.7080709803,256.357372733,89.2638490723,149.943546661,3.41650985184,
1000168,-82.0193637285,36.2332152587,258.291041917,89.6661692859,156.165876558,3.43379410155,
1000169,-85.7675947635,27.2499933127,260.150621953,89.9924577231,162.37395939,3.45103877608,
1000170,-88.4474761037,17.8780351199,261.936458299,90.2362464249,168.572678225,3.46825743951,
1000171,-89.9885825306,8.23982835458,263.646892767,90.3650361433,174.768285494,3.48546745971,
1000172,-90.3105728416,-1.52846206151,265.277452737,90.3235061501,180.969610339,3.50269336205,
1000173,-89.3697861982,-11.2710222509,266.8221355,90.0777143787,187.188005355,3.51996668154,
1000174,-87.2265648608,-20.8354050076,268.280183558,89.6804756859,193.434248148,3.53731735597,
1000175,-83.9571549506,-30.0889471684,269.654767912,89.186033711,199.716895034,3.55476915287,
1000176,-79.6304881565,-38.9098003151,270.950683489,88.6283656884,206.041496058,3.57233748905,
1000177,-74.3055403262,-47.1775343045,272.173061929,88.0172316437,212.411984287,3.59003328969,
1000178,-68.0341482497,-54.7628339909,273.326394955,87.3362084978,218.83168593,3.60786579425,
1000179,-60.8683270714,-61.5195248684,274.413676054,86.542505051,225.304854875,3.6258468191,
1000180,-52.885833989,-67.2999549396,275.436964228,85.5931969936,231.838932065,3.64399703351,
1000181,-44.2326617217,-72.0309465073,276.401967163,84.528016762,238.446805246,3.66235223679,
1000182,-35.0631137332,-75.6749173685,277.317820523,83.4033276518,245.139887645,3.68094413235,
1000183,-25.5211816015,-78.201205247,278.195619057,82.2603137146,251.925761855,3.69979378293,
1000184,-15.7444981381,-79.5761589316,279.047246078,81.1187665829,258.808318317,3.71891199532,
1000185,-5.87244331433,-79.7571261669,279.885081155,79.9730252328,265.788963543,3.73830267651,
1000186,3.94314833082,-78.6919810223,280.721221393,78.7907119905,272.868614416,3.75796837338,
1000187,13.5383290717,-76.3686278565,281.567711736,77.5593558169,280.052729682,3.77792424912,
1000188,22.7599262316,-72.8485929094,282.438420429,76.3212403656,287.350256284,3.79819515634,
1000189,31.4644821446,-68.2022439154,283.349213042,75.1103169459,294.765806536,3.81879390704,
1000190,39.5088850389,-62.4984793386,284.317430912,73.9392447666,302.299336162,3.83972037823,
1000191,46.74059302,-55.806337315,285.361413141,72.7944388012,309.94785479,3.86096626331,
1000192,52.9904344724,-48.2037016064,286.49954098,71.6350681868,317.708213356,3.88252281488,
1000193,58.1155376824,-39.8170942958,287.747741122,70.4472619643,325.583521607,3.90439867113,
1000194,62.050399871,-30.8282895856,289.121049402,69.2866189313,333.580591036,3.92661275288,
1000195,64.7490942378,-21.4161245713,290.637140663,68.1989413134,341.698078479,3.94916132911,
1000196,66.1667055702,-11.7550343148,292.316465205,67.2027808781,349.926063274,3.97201684243,
1000197,66.2523995451,-2.02514652823,294.181318487,66.2833437897,358.249176909,3.99513660253,
1000198,64.9614592061,7.5770277674,296.250657261,65.4018541937,6.65285081282,4.01848014115,
1000199,62.3339152186,16.8558875266,298.521833638,64.5727336481,15.1316165988,4.04203226833,
1000200,58.4570577174,25.6346857897,300.984577467,63.8307505244,23.6784916611,4.06577358795,
1000201,53.4243885223,33.7485062895,303.630383476,63.1911937358,32.2808474615,4.08966902073,
1000202,47.3339104742,41.0360871667,306.450642682,62.6455068679,40.9236203463,4.11367672318,
1000203,40.2950350547,47.3375890595,309.433079266,62.1654018569,49.5946734488,4.1377629818,
1000204,32.4559907552,52.5348586428,312.547567376,61.7519449776,58.2922631403,4.16192295317,
1000205,23.9795697563,56.5385754261,315.754431299,61.4136000973,67.016859361,4.18615794267,
1000206,15.0234251889,59.2424284201,319.013907656,61.1176621732,75.7702031412,4.2104727865,
1000207,5.75908979632,60.5175003291,322.280474348,60.790911832,84.5638729353,4.23489964704,
1000208,-3.60446840336,60.224700561,325.495724521,60.3324684571,93.4250857778,4.25951412716,
1000209,-12.8224682982,58.3374155005,328.590726732,59.7299735521,102.396398339,4.28443443983,
1000210,-21.6695716489,54.9658325739,331.504514068,59.083103219,111.516199741,4.3097672215,
1000211,-29.9391541713,50.2154928109,334.182451882,58.463224943,120.803967148,4.33556657541,
