Node ID,X,Y,Z,R, Theta(Deg.),Theta(turn.), 
1000001,54.1753463745,0.0,0.0,54.1753463745,0.0,0.0,
1000002,53.3189811707,7.00964546204,0.699767827988,53.7777731278,7.48950924754,0.0208041923543,
1000003,51.915927887,13.9262742996,1.43126475811,53.7513226278,15.0159007906,0.0417108355295,
1000004,49.8299942017,20.6631011963,2.19676804543,53.9443423649,22.5224141423,0.0625622615065,
1000005,46.9329071045,27.0872135162,2.99383091927,54.1886972103,29.9912890881,0.0833091363558,
1000006,43.1518669128,33.0297012329,3.81268334389,54.3419247138,37.431500145,0.103976389292,
1000007,38.5168914795,38.3322067261,4.63691949844,54.340675389,44.8623063017,0.124617517505,
1000008,33.1626167297,42.9110679626,5.44903564453,54.2320836964,52.3023619059,0.145284338628,
1000009,27.2557945251,46.7582893372,6.23558616638,54.122231633,59.7617364124,0.166004823368,
1000010,20.9227695465,49.8636817932,6.9858622551,54.0754015008,67.2371093994,0.186769748332,
1000011,14.2604026794,52.1942253113,7.68929004669,54.1072660594,74.7187136445,0.207551982346,
1000012,7.35697031021,53.6897735596,8.33345890045,54.1914826981,82.1975004808,0.228326390224,
1000013,0.311149865389,54.2632408142,8.90271091461,54.2641328863,89.6714649101,0.249087402528,
1000014,-6.75092411041,53.8311576843,9.38153362274,54.252820332,97.1481016902,0.269855838028,
1000015,-13.6894521713,52.416847229,9.77170372009,54.1749663053,104.636727876,0.290657577434,
1000016,-20.3805198669,50.085647583,10.0824871063,54.0734471239,112.142065069,0.311505736303,
1000017,-26.7155704498,46.9054718018,10.3244686127,53.9800425102,119.664191562,0.332400532118,
1000018,-32.5939178467,42.9410247803,10.5085725784,53.9100648282,127.199920435,0.353333112321,
1000019,-37.9151382446,38.2538642883,10.6456375122,53.8601507712,134.745205476,0.374292237432,
1000020,-42.5815162659,32.9135284424,10.7431974411,53.8190104148,142.297647606,0.395271243351,
1000021,-46.5290679932,27.0210189819,10.7948703766,53.8060371625,149.854801286,0.416263336907,
1000022,-49.7092399597,20.6810283661,10.7905769348,53.8397016304,157.410739529,0.437252054248,
1000023,-52.0749015808,13.9947042465,10.7201976776,53.9226030677,164.957635933,0.45821565537,
1000024,-53.5771102905,7.06455230713,10.573515892,54.040860896,172.488445726,0.479134571462,
1000025,-54.1659011841,0.000645650259685,10.3404979706,54.1659011879,179.999317042,0.499998102896,
1000026,-53.413898468,-9.86146068573,9.88082122803,54.3165992714,190.460358539,0.529056551496,
1000027,-50.922794342,-19.4324054718,9.37572193146,54.5045811471,200.88711675,0.55801976875,
1000028,-46.8133926392,-28.4327964783,8.9618806839,54.7715039593,211.273012878,0.586869480216,
1000029,-41.1911849976,-36.5814437866,8.77496147156,55.090069441,221.607931707,0.615577588076,
1000030,-34.1860809326,-43.5760002136,8.94365978241,55.385520889,231.885238939,0.64412566372,
1000031,-26.0641155243,-49.2128944397,9.50740146637,55.6888417656,242.093426719,0.672481740885,
1000032,-17.1356506348,-53.3931121826,10.4492702484,56.0754398219,252.206812171,0.700574478251,
1000033,-7.67958545685,-56.0312919617,11.7545642853,56.5551210032,262.19573097,0.728321474917,
1000034,2.03220295906,-57.0345726013,13.4104576111,57.0707659024,272.04064675,0.755668463194,
1000035,11.715388298,-56.3692131042,15.3783359528,57.573765805,281.740817158,0.782613380994,
1000036,21.1158599854,-54.1491699219,17.5720157623,58.1206688378,291.303656269,0.809176822968,
1000037,30.0270137787,-50.5076255798,19.908372879,58.7591847984,300.731676413,0.835365767815,
1000038,38.2680511475,-45.5640106201,22.3126888275,59.5022924131,310.026043498,0.861183454162,
1000039,45.6645927429,-39.4277496338,24.7149868011,60.3307754928,319.191998108,0.88664443919,
1000040,52.0683479309,-32.2454605103,27.0713253021,61.2444493793,328.230438684,0.911751218568,
1000041,57.3707504272,-24.1980781555,29.3684749603,62.2651587247,337.130749614,0.936474304484,
1000042,61.4699516296,-15.4581022263,31.5959339142,63.3838140047,345.884291372,0.960789698255,
1000043,64.2638244629,-6.19896173477,33.7415885925,64.5621116537,354.490230635,0.984695085099,
1000044,65.6562194824,3.39241933823,35.790184021,65.7438032494,2.95780986987,1.00821613853,
1000045,65.6246032715,13.1070308685,37.7330360413,66.9207203542,11.2949131461,1.03137475874,
1000046,64.237159729,22.7423534393,39.5770149231,68.1441657812,19.4958644475,1.05415517902,
1000047,61.5569496155,32.1183052063,41.3315124512,69.4322949015,27.5540083798,1.07653891217,
1000048,57.6340560913,41.0613975525,43.0047492981,70.7652654238,35.4679813852,1.09852217051,
1000049,52.5140533447,49.3916015625,44.6021652222,72.0919975004,43.2449712637,1.12012492018,
1000050,46.2621688843,56.9239845276,46.1267700195,73.3520843901,50.8992110501,1.14138669736,
1000051,39.0303726196,63.5366897583,47.5907897949,74.567291303,58.4377352471,1.16232704235,
1000052,30.9963989258,69.1595458984,49.0134849548,75.7879907059,65.8587048951,1.18294084693,
1000053,22.3204402924,73.7373886108,50.4149398804,77.0415766583,73.1588416204,1.2032190045,
1000054,13.1494903564,77.2200546265,51.8146095276,78.3316406898,80.3360319021,1.22315564417,
1000055,3.62496328354,79.5583724976,53.2303199768,79.6409128104,87.3912041989,1.242753345,
1000056,-6.11036634445,80.7092056274,54.6771202087,80.9401782175,94.3295135615,1.26202642656,
1000057,-15.9082450867,80.6813201904,56.1618728638,82.2347109766,101.154148682,1.28098374634,
1000058,-25.6300487518,79.512260437,57.6876602173,83.5410016628,107.866250844,1.29962847457,
1000059,-35.1445388794,77.229309082,59.2579612732,84.8498956648,114.468733178,1.31796870327,
1000060,-44.3187713623,73.8512420654,60.8757514954,86.1287376528,120.968334902,1.33602315251,
1000061,-53.0109062195,69.3948440552,62.542350769,87.3258298538,127.376305897,1.35382307194,
1000062,-61.0665817261,63.8854827881,64.2559432983,88.37693316,133.707634464,1.37141009573,
1000063,-68.3305358887,57.3787727356,66.0105285645,89.2265974667,139.979022527,1.38883061813,
1000064,-74.7139205933,50.0133895874,67.7994308472,89.9083370352,146.201705612,1.40611584892,
1000065,-80.1684036255,41.9422798157,69.6194000244,90.4772224153,152.382461841,1.42328461623,
1000066,-84.6475906372,33.2979888916,71.4696578979,90.96136908,158.526714931,1.44035198592,
1000067,-88.0978088379,24.2003746033,73.350402832,91.3612721725,164.639786739,1.45733274094,
1000068,-90.453742981,14.7659978867,75.2615432739,91.6510464362,170.728607602,1.47424613223,
1000069,-91.638092041,5.12069511414,77.200843811,91.7810515922,176.801663962,1.49111573323,
1000070,-91.5708389282,-4.59145402908,79.1625900269,91.685876732,182.870464099,1.50797351139,
1000071,-90.2499771118,-14.2107248306,81.1394882202,91.3619344634,188.948299635,1.52485638787,
1000072,-87.7575378418,-23.5930366516,83.1288070679,90.8736310846,195.047792674,1.54179942409,
1000073,-84.1737136841,-32.6129302979,85.131729126,90.270799808,201.178755063,1.55882987518,
1000074,-79.567527771,-41.151802063,87.1516494751,89.5793630733,207.347708006,1.57596585557,
1000075,-73.9959945679,-49.0887374878,89.1932449341,88.7981495316,213.560185092,1.59322273637,
1000076,-67.5093460083,-56.2890014648,91.2607498169,87.8974600565,219.821201485,1.61061444857,
1000077,-60.1606407166,-62.5964508057,93.3561706543,86.819458331,226.136743499,1.62815762083,
1000078,-52.0430488586,-67.8691940308,95.473526001,85.5260570405,232.518503842,1.64588473289,
1000079,-43.3172302246,-72.0575561523,97.5972671509,84.0754056367,238.987918501,1.66385532917,
1000080,-34.1419334412,-75.1446533203,99.7152328491,82.5372070144,245.565352185,1.68212597829,
1000081,-24.6617012024,-77.120765686,101.819343567,80.9679690137,252.266747979,1.70074096661,
1000082,-15.0109395981,-77.9716033936,103.904067993,79.4033956666,259.102851649,1.71973014347,
1000083,-5.32257556915,-77.6704788208,105.964736938,77.8526370198,266.079783572,1.73911050992,
1000084,4.26033496857,-76.1762008667,107.995742798,76.2952425288,273.201067829,1.75889185508,
1000085,13.5859479904,-73.4850921631,109.992431641,74.7304272236,280.474588243,1.77909607845,
1000086,22.5132675171,-69.6583251953,111.955528259,73.2060754536,287.910606783,1.79975168551,
1000087,30.9129695892,-64.7695388794,113.890159607,71.7684112648,295.514039832,1.82087233287,
1000088,38.6603469849,-58.8952178955,115.804428101,70.4504728157,303.281932316,1.84244981199,
1000089,45.6282958984,-52.1121177673,117.7084198,69.2648121689,311.204721142,1.86445755873,
1000090,51.681022644,-44.5014343262,119.612358093,68.2004820996,319.268955484,1.88685820968,
1000091,56.710559845,-36.1785087585,121.514602661,67.2679128108,327.46415541,1.90962265392,
1000092,60.6593017578,-27.2888221741,123.404449463,66.5148908546,335.778431767,1.93271786602,
1000093,63.491153717,-17.9785118103,125.273544312,65.9875252395,344.189701705,1.95608250474,
1000094,65.1829147339,-8.38988876343,127.115684509,65.7206406441,352.66561372,1.97962670478,
1000095,65.71849823,1.3380869627,128.925964355,65.7321191376,1.16643176299,2.00324008823,
1000096,65.0898895264,11.0668106079,130.702026367,66.023995756,9.64935375077,2.02680376042,
1000097,63.3042259216,20.6565055847,132.447357178,66.5891600976,18.0717799261,2.05019938868,
1000098,60.3772888184,29.9664058685,134.166000366,67.4047660461,26.3960860706,2.07332246131,
1000099,56.3353233337,38.8536109924,135.86076355,68.4344338931,34.5934354628,2.09609287629,
1000100,51.2207641602,47.1743927002,137.532608032,69.6346896868,42.6451132943,2.11845864804,
1000101,45.101524353,54.7917060852,139.180999756,70.9667425961,50.5406635095,2.14039073197,
1000102,38.0923538208,61.6041603088,140.811035156,72.4299660843,58.2698150961,2.16186059749,
1000103,30.3166847229,67.529914856,142.431381226,74.0229070831,65.8229186364,2.18284144066,
1000104,21.888923645,72.4850692749,144.049316406,75.7179651478,73.1968191655,2.20332449768,
1000105,12.9236106873,76.3826751709,145.669937134,77.4682695009,80.3967561646,2.22332432268,
1000106,3.54496264458,79.1368026733,147.295257568,79.2161618454,87.4351288102,2.24287535781,
1000107,-6.10700941086,80.6771392822,148.924057007,80.9079499599,94.3288573877,2.26202460385,
1000108,-15.8753824234,81.0115890503,150.557006836,82.5524398643,101.087427835,2.28079841065,
1000109,-25.6135387421,80.1870803833,152.198654175,84.178508108,107.714639517,2.29920733199,
1000110,-35.1873779297,78.2354431152,153.853973389,85.7842417056,114.216433852,2.31726787181,
1000111,-44.4631118774,75.1752853394,155.527114868,87.340092991,120.60258163,2.3350071712,
1000112,-53.2979888916,71.0192184448,157.220214844,88.7941721534,126.887229496,2.35246452638,
1000113,-61.5353736877,65.7849655151,158.932159424,90.079209048,133.088339052,2.3696898307,
1000114,-69.0119171143,59.515953064,160.65763855,91.1306390458,139.22547979,2.38673744386,
1000115,-75.6258163452,52.3433990479,162.390945435,91.9733413646,145.311471868,2.40364297741,
1000116,-81.3260421753,44.4259109497,164.130355835,92.6692327561,151.353579794,2.42042661054,
1000117,-86.0658950806,35.8998298645,165.876693726,93.253075447,157.357993404,2.43710553723,
1000118,-89.7918624878,26.8861408234,167.631759644,93.7306947451,163.330861006,2.45369683613,
1000119,-92.4377746582,17.5007095337,169.397033691,94.0798438452,169.279407844,2.47022057734,
1000120,-93.923500061,7.8657169342,171.172302246,94.2522857368,175.212878421,2.48670244006,
1000121,-94.1595306396,-1.87844920158,172.954147339,94.178265973,181.142878855,2.50317466349,
1000122,-93.1048126221,-11.5682296753,174.735321045,93.8207336958,187.082675484,2.51967409857,
1000123,-90.8359451294,-21.0492134094,176.510314941,93.2428995297,193.046750656,2.53624097405,
1000124,-87.4446411133,-30.1914024353,178.27796936,92.5099240106,199.0479012,2.55291083667,
1000125,-83.0128936768,-38.8784675598,180.039932251,91.6661101847,205.095690663,2.56971025184,
1000126,-77.6096038818,-46.997428894,181.799484253,90.7304190299,211.197505595,2.58665973776,
1000127,-71.2928695679,-54.4271888733,183.560272217,89.6938801696,217.359237417,2.60377565949,
1000128,-64.1168746948,-61.0287971497,185.324890137,88.5182902126,223.586464006,2.62107351113,
1000129,-56.1500358582,-66.64868927,187.092880249,87.1485760543,229.886608782,2.63857391328,
1000130,-47.5277709961,-71.2019042969,188.857803345,85.6072438019,236.276611664,2.65632392129,
1000131,-38.40883255,-74.6600494385,190.614379883,83.960475225,242.776463061,2.67437906406,
1000132,-28.9406890869,-77.0070419312,192.361053467,82.265715774,249.402839225,2.69278566451,
1000133,-19.2608890533,-78.2265396118,194.098968506,80.5628533926,256.167809493,2.71157724859,
1000134,-9.50392818451,-78.29296875,195.830718994,78.8676968513,263.078768839,2.73077435789,
1000135,0.188026919961,-77.1664733887,197.559158325,77.1667024653,270.139608915,2.75038780254,
1000136,9.65759372711,-74.8141784668,199.28527832,75.4349416137,277.355506542,2.77043196262,
1000137,18.7560386658,-71.2855453491,201.007522583,73.7117220132,284.741070662,2.7909474185,
1000138,27.3512954712,-66.663482666,202.727096558,72.0563202302,292.307804636,2.81196612399,
1000139,35.3239173889,-61.0358314514,204.448730469,70.520577569,300.05971168,2.83349919911,
1000140,42.5585517883,-54.4890480042,206.179901123,69.1396173168,307.991537998,2.85553204999,
1000141,48.9339256287,-47.1080970764,207.9296875,67.9242363784,316.089103159,2.87802528655,
1000142,54.3310432434,-38.9895172119,209.704299927,66.8733482961,324.335691883,2.90093247745,
1000143,58.6727638245,-30.2650871277,211.500442505,66.018699727,332.71402396,2.92420562211,
1000144,61.9093132019,-21.076631546,213.314926147,65.3986808618,341.199185404,2.94777551501,
1000145,64.0079116821,-11.5666542053,215.146286011,65.0446019852,349.756814641,2.97154670734,
1000146,64.9478607178,-1.87640488148,216.994049072,64.9749606163,358.345131283,2.99540314245,
1000147,64.7187194824,7.85337209702,218.858947754,65.1934667336,6.91879914964,3.01921888653,
1000148,63.3261566162,17.4810638428,220.747772217,65.6946702926,15.4320647154,3.04286684643,
1000149,60.7855873108,26.8646030426,222.669281006,66.4574640003,23.8433575038,3.06623154862,
1000150,57.1208724976,35.8600311279,224.630493164,67.4443170873,32.1202764841,3.08922299023,
1000151,52.3700141907,44.3217010498,226.635467529,68.6078098344,40.2418487027,3.11178291306,
1000152,46.5927467346,52.1068496704,228.684341431,69.8999844839,48.1976497887,3.13388236052,
1000153,39.8929290771,59.1021194458,230.775939941,71.3057242677,55.9813170405,3.15550365845,
1000154,32.4001693726,65.2256164551,232.911270142,72.8296094821,63.5845733405,3.17662381483,
1000155,24.2320175171,70.3953857422,235.091384888,74.4493183766,71.0051356049,3.19723648779,
1000156,15.5028858185,74.5239715576,237.315383911,76.119391783,78.2486164441,3.2173572679,
1000157,6.33343887329,77.5215988159,239.579040527,77.7798864163,85.329364113,3.23702601143,
1000158,-3.13959383965,79.3049087524,241.873092651,79.3670309493,92.2670928002,3.25629748,
1000159,-12.7598705292,79.8527374268,244.184692383,80.8657774987,99.0786858177,3.27521857172,
1000160,-22.373626709,79.2184524536,246.50352478,82.3173273452,105.771244265,3.29380901185,
1000161,-31.8441371918,77.4460830688,248.822006226,83.737356396,112.351394008,3.31208720558,
1000162,-41.039604187,74.5636672974,251.132858276,85.1116301845,118.828245869,3.33007846075,
1000163,-49.8219146729,70.588684082,253.427078247,86.4001475815,125.214671899,3.34781853305,
1000164,-58.0400047302,65.537147522,255.69229126,87.5429029357,131.528251451,3.36535625403,
1000165,-65.5278778076,59.4394073486,257.91116333,88.4700283482,137.78927431,3.38274798419,
1000166,-72.1591415405,52.3994903564,260.068359375,89.1776221789,144.014135448,3.40003926513,
1000167,-77.874786377,44.5787239075,262.158172607,89.7315160826,150.211406915,3.4172539081,
1000168,-82.6284332275,36.1213607788,264.178833008,90.1787706844,156.387257612,3.43440904892,
1000169,-86.3715133667,27.155374527,266.129882812,90.5397851055,162.546749265,3.45151874796,
1000170,-89.0461883545,17.800447464,268.010467529,90.8079269138,168.695506053,3.46859862793,
1000171,-90.5821380615,8.17907047272,269.817749023,90.9506510675,174.840496845,3.48566804679,
1000172,-90.8991622925,-1.57263123989,271.545806885,90.91276519,180.991165838,3.50275323844,
1000173,-89.9535064697,-11.2989234924,273.187194824,90.6603496479,187.159340923,3.51988705812,
1000174,-87.8054504395,-20.8473758698,274.739654541,90.2463861189,193.356253672,3.53710070464,
1000175,-84.5313034058,-30.0853061676,276.20513916,89.725508651,199.591014383,3.5544194844,
1000176,-80.2000656128,-38.8908309937,277.587310791,89.1321898063,205.869798777,3.57186055216,
1000177,-74.8707733154,-47.1434745789,278.890167236,88.4767760049,212.197168227,3.58943657841,
1000178,-68.5953521729,-54.7138938904,280.117126465,87.7435611562,218.577006578,3.6071583516,
1000179,-61.4259185791,-61.4558906555,281.269866943,86.8905631789,225.013975001,3.62503881945,
1000180,-53.440284729,-67.2217636108,282.349304199,85.8756632281,231.515831871,3.64309953298,
1000181,-44.7844772339,-71.9382247925,283.360595703,84.7393508791,238.096053022,3.66137792506,
1000182,-35.6128578186,-75.5676040649,284.312866211,83.5388438161,244.766834483,3.67990787356,
1000183,-26.0695285797,-78.0791625977,285.217163086,82.3163164404,251.53656405,3.69871267792,
1000184,-16.2922477722,-79.4391860962,286.085632324,81.0926730667,258.409880154,3.71780522265,
1000185,-6.42056417465,-79.6049957275,286.930786133,79.8635022341,265.388773986,3.73719103885,
1000186,3.39349365234,-78.5245437622,287.765106201,78.5978356714,272.474537889,3.75687371636,
1000187,12.9858217239,-76.1858978271,288.601654053,77.2846853754,279.673055168,3.77686959769,
1000188,22.2031936646,-72.6508178711,289.455993652,75.9679086605,286.993948389,3.79720541219,
1000189,30.9021644592,-67.9899597168,290.345855713,74.6831867997,294.442304636,3.81789529066,
1000190,38.9397315979,-62.272605896,291.290679932,73.4450824902,302.018185898,3.83893940527,
1000191,46.1635742188,-55.5683021545,292.311248779,72.2420361631,309.718233863,3.8603284274,
1000192,52.4048805237,-47.9555130005,293.42868042,71.0352217554,317.538483033,3.88205134176,
1000193,57.521446228,-39.5613746643,294.66192627,69.8127434033,325.481075311,3.90411409809,
1000194,61.4485855103,-30.5680503845,296.028503418,68.6318757249,333.551613901,3.92653226084,
1000195,64.1412658691,-21.1546440125,297.548400879,67.5397731014,341.746756032,3.94929654453,
1000196,65.5554962158,-11.4957618713,299.244110107,66.5558083499,350.053784502,3.97237162362,
1000197,65.6413345337,-1.77165448666,301.139678955,65.6652385893,358.453966724,3.99570546312,
1000198,64.3549194336,7.82114219666,303.255615234,64.8284345065,6.92925377255,4.01924792715,
1000199,61.7367591858,17.0872879028,305.589385986,64.0578086,15.4708410456,4.04297455846,
1000200,57.8742980957,25.8504085541,308.1300354,63.3851560106,24.0686314729,4.06685730965,
1000201,52.8611412048,33.9459342957,310.867889404,62.8221832212,32.7074329139,4.09085398032,
1000202,46.7952919006,41.2128829956,313.79296875,62.3562432229,41.3705583114,4.11491821753,
1000203,39.7860183716,47.4916000366,316.891235352,61.9546554498,50.0454575114,4.13901515975,
1000204,31.9811439514,52.6642227173,320.130340576,61.6142347421,58.7311514448,4.16314208735,
1000205,23.5429363251,56.6417961121,323.467956543,61.3397335958,67.4299818312,4.18730550509,
1000206,14.6286239624,59.3184165955,326.861907959,61.0955905645,76.1466096112,4.21151836003,
1000207,5.40932273865,60.5656700134,330.263916016,60.8067525581,84.896264001,4.23582295556,
1000208,-3.90659666061,60.245059967,333.612213135,60.3715889132,93.7101558452,4.26030598846,
1000209,-13.0753126144,58.3305282593,336.834320068,59.7780421808,102.634511096,4.28509586416,
1000210,-21.8725948334,54.9328575134,339.866333008,59.1272292547,111.710944511,4.3103081792,
1000211,-30.09283638,50.1581993103,342.650878906,58.4929376886,120.962006758,4.33600557433,
