Node ID,X,Y,Z,R, Theta(Deg.),Theta(turn.), 
1000001,54.1697502136,-7.12577817119e-15,-6.57466179565e-16,54.1697502136,0.0,0.0,
1000002,53.312828064,7.01181221008,0.671503841877,53.7719550198,7.49265287557,0.0208129246544,
1000003,51.9088592529,13.9305686951,1.37551510334,53.7456083146,15.0222748947,0.0417285413743,
1000004,49.8215751648,20.6693439484,2.11472415924,53.9389574534,22.5319652003,0.062588792223,
1000005,46.9227333069,27.0950737,2.88726568222,54.183816032,30.0038654354,0.083344070654,
1000006,43.1397438049,33.0386924744,3.68404340744,54.3377649151,37.4467982907,0.104018884141,
1000007,38.5029983521,38.341884613,4.4892244339,54.3376572717,44.87987328,0.124666314667,
1000008,33.1474380493,42.9212112427,5.2855591774,54.2308309338,52.3216038976,0.145337788604,
1000009,27.2398071289,46.7687644958,6.05962657928,54.1232336884,59.7819426485,0.166060951801,
1000010,20.9063434601,49.8742713928,6.80077886581,54.0788141867,67.2574981968,0.18682638388,
1000011,14.2438745499,52.2046165466,7.49860334396,54.1129370019,74.7384949655,0.20760693046,
1000012,7.34068202972,53.6995773315,8.14096641541,54.1989872437,82.2159670133,0.228377686148,
1000013,0.295494258404,54.2719841003,8.71259975433,54.272788532,89.6880451883,0.249133458856,
1000014,-6.76550674438,53.8385772705,9.1983499527,54.2619985259,97.1624050901,0.269895569695,
1000015,-13.7026119232,52.4230117798,9.59976291656,54.1842572855,104.648544563,0.290690401563,
1000016,-20.3920459747,50.0907554626,9.92562484741,54.0825232571,112.151335895,0.311531488596,
1000017,-26.7253627777,46.9097366333,10.1860303879,53.9885951531,119.670981722,0.332419393672,
1000018,-32.6019248962,42.9446105957,10.3914289474,53.917762251,127.204394075,0.353345539096,
1000019,-37.9212799072,38.2568740845,10.552189827,53.8666119643,134.747591605,0.374298865569,
1000020,-42.585647583,32.9160041809,10.6753864288,53.8237931709,142.298251976,0.395272922154,
1000021,-46.5310401917,27.0229797363,10.7542495728,53.8087273139,149.854050441,0.416261251224,
1000022,-49.7089920044,20.6825008392,10.7783632278,53.840038327,157.409191402,0.437247753895,
1000023,-52.0725021362,13.9957208633,10.7372922897,53.9205497117,164.955930979,0.458210919386,
1000024,-53.5727958679,7.0651140213,10.6204948425,54.0366569399,172.487257219,0.479131270054,
1000025,-54.1600875854,0.000645720574539,10.4175806046,54.1600875893,179.999316894,0.499998102484,
1000026,-53.4067268372,-9.86293792725,9.99937343597,54.3098150983,190.463264732,0.529064624257,
1000027,-50.914440155,-19.4352722168,9.53339672089,54.4977983265,200.893064036,0.55803628899,
1000028,-46.8033027649,-28.4361019135,9.15457248688,54.7645966089,211.281448532,0.586892912588,
1000029,-41.1783409119,-36.5831069946,8.99682331085,55.0815711253,221.618096993,0.61560582498,
1000030,-34.1694602966,-43.5729217529,9.18705749512,55.3728410599,231.896803642,0.644157787896,
1000031,-26.0435810089,-49.2023277283,9.76428985596,55.6698946078,242.107013312,0.672519481422,
1000032,-17.1116924286,-53.37317276,10.7124357224,56.0491354817,252.223903088,0.700621953022,
1000033,-7.65288829803,-56.0004615784,12.0177774429,56.5209553731,262.218299615,0.728384165598,
1000034,2.06078314781,-56.9910202026,13.668545723,57.0282667711,272.070900906,0.755752502515,
1000035,11.7446069717,-56.3108482361,15.6266860962,57.5225818439,281.781141269,0.782725392415,
1000036,21.1443367004,-54.0745773315,17.8057155609,58.0615439692,291.356580074,0.80932383354,
1000037,30.0537433624,-50.4167709351,20.1221084595,58.6947892203,300.799426478,0.835553962438,
1000038,38.2931213379,-45.4585075378,22.5008144379,59.4376904781,310.109956917,0.861416546992,
1000039,45.6898765564,-39.3106842041,24.8717880249,60.2734992541,319.291935233,0.886922042314,
1000040,52.0968971252,-32.119972229,27.1923141479,61.2027720456,328.344386627,0.912067740631,
1000041,57.4043464661,-24.0652751923,29.4506931305,62.2446500775,337.255403165,0.936820564347,
1000042,61.5083045959,-15.3176221848,31.637594223,63.3869157134,346.015892738,0.961155257604,
1000043,64.3045272827,-6.05003929138,33.7418746948,64.5885067522,354.625194758,0.985069985438,
1000044,65.6956787109,3.54992198944,35.7492027283,65.7915203307,3.09301821062,1.00859171725,
1000045,65.6611404419,13.2721633911,37.652015686,66.9890713864,11.4272950412,1.03174248623,
1000046,64.2702407837,22.9139175415,39.4579315186,68.2327741448,19.6223981316,1.05450666148,
1000047,61.5862159729,32.2950782776,41.1768455505,69.5401616249,27.6719815124,1.07686661531,
1000048,57.6590194702,41.242023468,42.8174057007,70.8905284647,35.5751720121,1.09881992226,
1000049,52.5340423584,49.5744094849,44.385471344,72.231902109,43.3397357947,1.12038815499,
1000050,46.2769470215,57.1072883606,45.8844680786,73.5037292219,50.9803867837,1.14161218551,
1000051,39.0408630371,63.7196922302,47.3267974854,74.7287639708,58.5043241724,1.16251201159,
1000052,31.0035305023,69.3418121338,48.7315177917,75.9572630734,65.9100262288,1.18308340619,
1000053,22.3251457214,73.918548584,50.1184616089,77.2163451365,73.1944449998,1.20331790278,
1000054,13.1522865295,77.399848938,51.5068588257,78.5093577644,80.3560468963,1.22321124138,
1000055,3.62639069557,79.7363052368,52.914276123,79.8187263886,87.3959941762,1.24276665049,
1000056,-6.10977697372,80.8846130371,54.3555259705,81.1150417668,94.3197449868,1.26199929163,
1000057,-15.90782547,80.8537445068,55.8372688293,82.4038039896,101.130670282,1.28091852856,
1000058,-25.6290950775,79.6817321777,57.362449646,83.7020248103,107.830039044,1.29952788623,
1000059,-35.142414093,77.3962402344,58.9344558716,85.0009839396,114.420823488,1.3178356208,
1000060,-44.3149604797,74.0162734985,60.556224823,86.2683282841,120.90976486,1.33586045794,
1000061,-53.0049743652,69.5586624146,62.229057312,87.4524718025,127.308064358,1.3536335121,
1000062,-61.058013916,64.048576355,63.9511451721,88.4889891256,133.630655821,1.37119626617,
1000063,-68.3181381226,57.5409317017,65.7164154053,89.3214801581,139.894250644,1.38859514068,
1000064,-74.6956253052,50.173866272,67.5178222656,89.9825166152,146.110311602,1.40586197667,
1000065,-80.1424942017,42.1011276245,69.3517379761,90.5280305989,152.285779172,1.42301605326,
1000066,-84.6131057739,33.455947876,71.2170944214,90.9872415067,158.426201109,1.44007278086,
1000067,-88.0546722412,24.3586711884,73.1138839722,91.3617543919,164.536894276,1.45704692854,
1000068,-90.4028091431,14.9260263443,75.0418701172,91.6267109711,170.624714871,1.47395754131,
1000069,-91.5810241699,5.28375053406,76.9987106323,91.7333200518,176.697990965,1.49082775268,
1000070,-91.509475708,-4.42446899414,78.9786300659,91.6163744657,182.768086427,1.50768912896,
1000071,-90.1841278076,-14.0390701294,80.9739761353,91.2703259473,188.848283056,1.52457856404,
1000072,-87.6866149902,-23.4158916473,82.9815063477,90.7592773775,194.951420998,1.54153172499,
1000073,-84.0973968506,-32.4294586182,85.0019302368,90.1334673876,201.087530312,1.55857647309,
1000074,-79.4859008789,-40.9612579346,87.0382385254,89.4194223316,207.263289099,1.57573135861,
1000075,-73.909538269,-48.8906211853,89.0947418213,88.6166614527,213.484345611,1.59301207114,
1000076,-67.4188613892,-56.0831184387,91.1752853394,87.6961746305,219.755748179,1.61043263383,
1000077,-60.0670051575,-62.3828735352,93.2815551758,86.6006236646,226.083493655,1.6280097046,
1000078,-51.9465751648,-67.6473083496,95.407371521,85.2912949737,232.479231133,1.64577564204,
1000079,-43.2180137634,-71.8261642456,97.5372467041,83.8259779775,238.964554034,1.66379042787,
1000080,-34.0403518677,-74.9026412964,99.6591110229,82.2748517376,245.56004133,1.68211122592,
1000081,-24.5584449768,-76.8673858643,101.765022278,80.6951809545,252.281782149,1.70078272819,
1000082,-14.9069223404,-77.7066192627,103.849647522,79.1235427095,259.140540688,1.71983483525,
1000083,-5.21880483627,-77.3942565918,105.908531189,77.5700127454,266.142303973,1.7392841777,
1000084,4.36291885376,-75.8897323608,107.936317444,76.0150415295,273.290326267,1.75913979519,
1000085,13.686674118,-73.1900558472,109.928512573,74.4587759994,280.592078939,1.7794224415,
1000086,22.6116161346,-69.3557510376,111.885765076,72.9486489677,288.05719407,1.80015887242,
1000087,31.0084285736,-64.4597091675,113.813064575,71.5302505837,295.689942623,1.82136095173,
1000088,38.7520942688,-58.5781135559,115.718292236,70.2361744259,303.486453986,1.84301792774,
1000089,45.715637207,-51.7875022888,117.611320496,69.0786861381,311.436590859,1.86510164128,
1000090,51.7634735107,-44.1699523926,119.501914978,68.0473503104,319.525758043,1.88757155012,
1000091,56.7897186279,-35.8417205811,121.388221741,67.1543079486,327.742729015,1.91039646949,
1000092,60.7366371155,-26.9477519989,123.260246277,66.4463725563,336.074000943,1.93353889151,
1000093,63.5670928955,-17.6335201263,125.110328674,65.9675399817,344.495978364,1.95693327323,
1000094,65.256477356,-8.04103565216,126.932861328,65.75002731,352.97530841,1.98048696781,
1000095,65.7873687744,1.69054460526,128.723403931,65.8090862368,1.47201143263,2.00408892065,
1000096,65.1516113281,11.4220428467,130.480026245,66.1452607633,9.94374629168,2.02762151748,
1000097,63.357383728,21.0133209229,132.206222534,66.7511627544,18.3487900389,2.05096886122,
1000098,60.4213027954,30.3235626221,133.905807495,67.603641038,26.6506435008,2.07402956528,
1000099,56.3703842163,39.2100410461,135.581375122,68.6662037361,34.8216538687,2.0967268163,
1000100,51.2477226257,47.5294342041,137.233734131,69.8954661626,42.844221294,2.11901172582,
1000101,45.1220626831,55.1456031799,138.862258911,71.2533374015,50.7087679052,2.14085768863,
1000102,38.1088752747,61.9583206177,140.472579956,72.7400843309,58.4054596024,2.16223738778,
1000103,30.3308124542,67.8857269287,142.07383728,74.3534135381,65.9252813435,2.18312578151,
1000104,21.9015731812,72.8433761597,143.673675537,76.064685355,73.2657202921,2.2035158897,
1000105,12.9347734451,76.7436294556,145.277633667,77.8260433665,80.4329845138,2.22342495698,
1000106,3.55436325073,79.499382019,146.888046265,79.5787989324,87.4400495087,2.24288902641,
1000107,-6.09956264496,81.0391845703,148.50390625,81.2684077627,94.3043558254,2.26195654396,
1000108,-15.8695955276,81.3710479736,150.125671387,82.9041103356,101.035729264,2.28065480351,
1000109,-25.6088294983,80.5430679321,151.757492065,84.516258437,107.638166321,2.29899490645,
1000110,-35.183265686,78.5882263184,153.403991699,86.1044220711,114.117647493,2.31699346526,
1000111,-44.459526062,75.5261077881,155.069091797,87.6404154216,120.483804413,2.33467723448,
1000112,-53.2954902649,71.369934082,156.754776001,89.0734347235,126.750532265,2.35208481185,
1000113,-61.53515625,66.1375045776,158.459854126,90.3368416897,132.935493771,2.36926526048,
1000114,-69.0149230957,59.8710403442,160.179016113,91.3652071732,139.058079986,2.38627244441,
1000115,-75.6310119629,52.6994590759,161.906311035,92.180708163,145.131333541,2.40314259317,
1000116,-81.3324279785,44.781867981,163.639785767,92.8459990562,151.162693466,2.41989637074,
1000117,-86.0729980469,36.2552719116,165.380081177,93.397032791,157.158424937,2.43655118038,
1000118,-89.8000030518,27.2410583496,167.128890991,93.8409069015,163.124693119,2.45312414755,
1000119,-92.4480667114,17.8552837372,168.887680054,94.15655153,169.068574215,2.46963492837,
1000120,-93.9376983643,8.21991825104,170.656234741,94.2966501527,174.999131657,2.48610869905,
1000121,-94.179473877,-1.52515256405,172.431274414,94.19182231,180.92777294,2.50257714706,
1000122,-93.1280975342,-11.2163238525,174.205551147,93.8011112466,186.867609703,2.51907669362,
1000123,-90.8584594727,-20.6981925964,175.973327637,93.1862373664,192.833370471,2.53564825131,
1000124,-87.4635238647,-29.8402175903,177.733261108,92.413779236,198.838269971,2.5523285277,
1000125,-83.0268707275,-38.5261383057,179.486923218,91.5299109338,204.892248565,2.5691451349,
1000126,-77.6189498901,-46.6436195374,181.237609863,90.5556658945,211.002955357,2.58611932044,
1000127,-71.2991409302,-54.0726470947,182.989028931,89.4841810669,217.176362856,2.6032676746,
1000128,-64.1223678589,-60.6756248474,184.744018555,88.2791567158,223.41797425,2.62060548403,
1000129,-56.1563682556,-66.2992248535,186.502487183,86.8857002725,229.734935372,2.63815259825,
1000130,-47.5344200134,-70.8559265137,188.258361816,85.3234048086,236.143912847,2.65595531346,
1000131,-38.4150886536,-74.3165206909,190.006469727,83.6580198419,242.665022675,2.67406950743,
1000132,-28.9461212158,-76.6647720337,191.745361328,81.9473318932,249.315096661,2.69254193517,
1000133,-19.2654151917,-77.884727478,193.476318359,80.2320820921,256.106312563,2.71140642379,
1000134,-9.50768661499,-77.9516448975,195.202194214,78.5293260317,263.04603695,2.73068343597,
1000135,0.18500213325,-76.826789856,196.926132202,76.8270126021,270.137970374,2.75038325104,
1000136,9.65571308136,-74.4781265259,198.649490356,75.1014255918,277.386906505,2.77051918474,
1000137,18.7559089661,-70.9544448853,200.370773315,73.3915347306,284.806744749,2.79112984652,
1000138,27.3533992767,-66.3375473022,202.091079712,71.75568712,292.408146687,2.81224485191,
1000139,35.3283882141,-60.714225769,203.8150177,70.2446597582,300.194265191,2.83387295886,
1000140,42.564540863,-54.1705513,205.549743652,68.8925886219,308.158511507,2.8559958653,
1000141,48.9401779175,-46.7910690308,207.304122925,67.709269348,316.286039757,2.87857233266,
1000142,54.3365287781,-38.6734352112,209.083816528,66.6940248499,324.559052691,2.90155292414,
1000143,58.6773757935,-29.9500255585,210.885482788,65.8789682749,332.959387009,2.92488718614,
1000144,61.9133529663,-20.762878418,212.706115723,65.3020703786,341.460926423,2.9485025734,
1000145,64.0121612549,-11.2545423508,214.544311523,64.9940113553,350.028240243,2.97230066734,
1000146,64.9537353516,-1.56616127491,216.399658203,64.9726142098,358.618754617,2.99616320727,
1000147,64.7284545898,8.16183280945,218.273040771,65.2410020493,7.18669307729,3.01996303633,
1000148,63.3419876099,17.7882823944,220.171340942,65.7923277055,15.6862949128,3.04357304142,
1000149,60.8085784912,27.1713638306,222.103179932,66.603049709,24.0767340712,3.06687981686,
1000150,57.1507148743,36.1669120789,224.075210571,67.6331999831,32.3270171548,3.08979726987,
1000151,52.4052467346,44.6286964417,226.091033936,68.833352609,40.4179617035,3.11227211584,
1000152,46.6313705444,52.4133415222,228.150192261,70.1544231562,48.3409857734,3.13428051604,
1000153,39.9342384338,59.4080200195,230.25112915,71.5825135206,56.0908945524,3.15580804042,
1000154,32.4440727234,65.5315093994,232.394775391,73.1231603464,63.6603937782,3.17683442716,
1000155,24.2786483765,70.7019424438,234.582077026,74.7543806898,71.0478174394,3.19735504844,
1000156,15.5520076752,74.83177948,236.81211853,76.4307540383,78.2595593814,3.21738766495,
1000157,6.38444375992,77.830581665,239.0806427,78.0920006431,85.3105259257,3.23697368313,
1000158,-3.08744573593,79.6137619019,241.378234863,79.6736054496,92.2208347701,3.25616898547,
1000159,-12.7070770264,80.1589508057,243.691879272,81.1598866486,99.007772099,3.27502158916,
1000160,-22.320186615,79.5202255249,246.010971069,82.5933229629,105.678669083,3.29355185856,
1000161,-31.7898960114,77.7428436279,248.327713013,83.9913520773,112.240187857,3.3117782996,
1000162,-40.9846801758,74.8561096191,250.634796143,85.3415558589,118.701270381,3.32972575106,
1000163,-49.7670822144,70.8785324097,252.923171997,86.6055935184,125.074460605,3.34742905724,
1000164,-57.9868507385,65.8266906738,255.180541992,87.7247289174,131.37688374,3.36493578817,
1000165,-65.4785385132,59.7305412292,257.38973999,88.6294339447,137.628442941,3.38230123039,
1000166,-72.1139373779,52.6913719177,259.535308838,89.3129365698,143.845582492,3.39957106248,
1000167,-77.8333740234,44.8701095581,261.61151123,89.8407526885,150.037009975,3.41676947215,
1000168,-82.5905761719,36.4113693237,263.616668701,90.260684068,156.208953051,3.43391375848,
1000169,-86.3374176025,27.4434566498,265.550354004,90.5941112389,162.366473311,3.45101798142,
1000170,-89.0165863037,18.0862770081,267.411834717,90.835378863,168.515052126,3.46809736702,
1000171,-90.558380127,8.46224784851,269.198455811,90.9528990735,174.661485852,3.48517079403,
1000172,-90.8829574585,-1.29280388355,270.904632568,90.892152017,180.814973597,3.50226381555,
1000173,-89.943901062,-11.0233516693,272.523010254,90.6168837484,186.987215882,3.519408933,
1000174,-87.8000183105,-20.5763206482,274.051635742,90.1788677393,193.189491896,3.53663747749,
1000175,-84.5281982422,-29.8186073303,275.492797852,89.6335073574,199.431068823,3.55397519117,
1000176,-80.1982727051,-38.6282730103,276.850494385,89.0163267083,205.718240954,3.57143955821,
1000177,-74.8701400757,-46.8851165771,278.129241943,88.3388478044,212.05558705,3.58904329736,
1000178,-68.5964202881,-54.4603500366,279.332855225,87.5865206664,218.446907226,3.60679696452,
1000179,-61.4296264648,-61.2084922791,280.463745117,86.7183863704,224.896687572,3.62471302103,
1000180,-53.4467430115,-66.9813842773,281.523254395,85.6916575767,231.412433233,3.64281231454,
1000181,-44.7927932739,-71.7044143677,282.516845703,84.5453568748,238.007527437,3.66113202066,
1000182,-35.6222419739,-75.3396911621,283.453918457,83.3367457227,244.694198761,3.67970610767,
1000183,-26.0794200897,-77.8565597534,284.345733643,82.1083433571,251.480822836,3.69855784121,
1000184,-16.3022899628,-79.2217178345,285.204711914,80.8816742821,258.371960906,3.71769989141,
1000185,-6.43043994904,-79.3931045532,286.043701172,79.6530954109,265.369439743,3.73713733262,
1000186,3.38430809975,-78.3193969727,286.875610352,78.3924835904,272.474304233,3.75687306731,
1000187,12.978187561,-75.9887619019,287.713653564,77.0890737248,279.692080879,3.77692244689,
1000188,22.1980667114,-72.4622497559,288.573242188,75.7860924273,287.031908025,3.79731085563,
1000189,30.9003620148,-67.8098678589,289.471862793,74.5185248893,294.498338223,3.81805093951,
1000190,38.9418067932,-62.1004524231,290.428710938,73.3002763124,302.090906176,3.83914140604,
1000191,46.1698646545,-55.4033966064,291.464202881,72.1192953221,309.805795374,3.86057165382,
1000192,52.4158554077,-47.7973709106,292.599060059,70.9366658653,317.638699194,3.88232971998,
1000193,57.5387840271,-39.4103317261,293.852020264,69.7415651823,325.591388338,3.90442052316,
1000194,61.4739456177,-30.4242172241,295.240875244,68.5906625096,333.668622023,3.9268572834,
1000195,64.1754226685,-21.0177230835,296.785980225,67.5294717756,341.866159123,3.94962821978,
1000196,65.5981445312,-11.3654031754,298.510040283,66.575438078,350.1706266,3.972696185,
1000197,65.6912765503,-1.64787638187,300.437194824,65.7119419236,358.563027392,3.99600840942,
1000198,64.4113235474,7.93783426285,302.587554932,64.898596394,7.02551539742,4.01951532055,
1000199,61.8005027771,17.1966648102,304.95715332,64.1484795151,15.5498068956,4.04319390804,
1000200,57.9462509155,25.9526004791,307.533752441,63.4925622951,24.1263513788,4.06701764272,
1000201,52.94115448,34.0409011841,310.306488037,62.9408356403,32.7408175709,4.09094671547,
1000202,46.8817138672,41.299571991,313.264251709,62.4783941996,41.3778371824,4.11493843662,
1000203,39.8758621216,47.5671539307,316.391662598,62.0702707663,50.0266719902,4.13896297775,
1000204,32.0719795227,52.7253990173,319.655059814,61.7136903129,58.6885492982,4.16302374805,
1000205,23.634016037,56.6871795654,323.011260986,61.4166348893,67.3677708818,4.18713269689,
1000206,14.7201633453,59.3490715027,326.417297363,61.1473261651,76.0702087314,4.21130613536,
1000207,5.50147199631,60.5851249695,329.824371338,60.8343945617,84.811448973,4.23558735826,
1000208,-3.81477999687,60.2581291199,333.170654297,60.378760102,93.6224074629,4.26006224295,
1000209,-12.9854888916,58.3394546509,336.383911133,59.76717235,102.548614964,4.28485726379,
1000210,-21.7861270905,54.9381027222,339.401184082,59.1001731327,111.63118219,4.3100866172,
1000211,-30.0107059479,50.1600799561,342.166137695,58.4523403525,120.892024302,4.33581117862,
